10:51:38.760473,-8388608,-8388608,-8388608,-8388608,1242348,-8388608,-8388608,-8388608
10:51:38.777484,-8388608,-8388608,-8388608,-8388608,1333054,-8388608,-8388608,-8388608
10:51:38.777484,-8388608,-8388608,-8388608,-8388608,1002103,-8388608,-8388608,-8388608
10:51:38.777484,-8388608,-8388608,-8388608,-8388608,728527,-8388608,-8388608,-8388608
10:51:38.777484,-8388608,-8388608,-8388608,-8388608,859384,-8388608,-8388608,-8388608
10:51:38.793554,-8388608,-8388608,-8388608,-8388608,1291745,-8388608,-8388608,-8388608
10:51:38.798178,-8388608,-8388608,-8388608,-8388608,1408270,-8388608,-8388608,-8388608
10:51:38.798769,-8388608,-8388608,-8388608,-8388608,1045134,-8388608,-8388608,-8388608
10:51:38.798769,-8388608,-8388608,-8388608,-8388608,698098,-8388608,-8388608,-8388608
10:51:38.810049,-8388608,-8388608,-8388608,-8388608,832176,-8388608,-8388608,-8388608
10:51:38.815052,-8388608,-8388608,-8388608,-8388608,1325114,-8388608,-8388608,-8388608
10:51:38.817918,-8388608,-8388608,-8388608,-8388608,1489686,-8388608,-8388608,-8388608
10:51:38.817918,-8388608,-8388608,-8388608,-8388608,1072835,-8388608,-8388608,-8388608
10:51:38.825820,-8388608,-8388608,-8388608,-8388608,593583,-8388608,-8388608,-8388608
10:51:38.827020,-8388608,-8388608,-8388608,-8388608,704855,-8388608,-8388608,-8388608
10:51:38.827020,-8388608,-8388608,-8388608,-8388608,1693431,-8388608,-8388608,-8388608
10:51:38.827020,-8388608,-8388608,-8388608,-8388608,2349715,-8388608,-8388608,-8388608
10:51:38.843162,-8388608,-8388608,-8388608,-8388608,1689414,-8388608,-8388608,-8388608
10:51:38.843709,-8388608,-8388608,-8388608,-8388608,453648,-8388608,-8388608,-8388608
10:51:38.843709,-8388608,-8388608,-8388608,-8388608,258053,-8388608,-8388608,-8388608
10:51:38.843709,-8388608,-8388608,-8388608,-8388608,1299749,-8388608,-8388608,-8388608
10:51:38.843709,-8388608,-8388608,-8388608,-8388608,1850261,-8388608,-8388608,-8388608
10:51:38.860411,-8388608,-8388608,-8388608,-8388608,1185108,-8388608,-8388608,-8388608
10:51:38.860411,-8388608,-8388608,-8388608,-8388608,22627,-8388608,-8388608,-8388608
10:51:38.860411,-8388608,-8388608,-8388608,-8388608,-105501,-8388608,-8388608,-8388608
10:51:38.860411,-8388608,-8388608,-8388608,-8388608,1267433,-8388608,-8388608,-8388608
10:51:38.877093,-8388608,-8388608,-8388608,-8388608,2212594,-8388608,-8388608,-8388608
10:51:38.877093,-8388608,-8388608,-8388608,-8388608,1423340,-8388608,-8388608,-8388608
10:51:38.877093,-8388608,-8388608,-8388608,-8388608,-24870,-8388608,-8388608,-8388608
10:51:38.877093,-8388608,-8388608,-8388608,-8388608,-124958,-8388608,-8388608,-8388608
10:51:38.893820,-8388608,-8388608,-8388608,-8388608,1344442,-8388608,-8388608,-8388608
10:51:38.893820,-8388608,-8388608,-8388608,-8388608,2327768,-8388608,-8388608,-8388608
10:51:38.893820,-8388608,-8388608,-8388608,-8388608,1450794,-8388608,-8388608,-8388608
10:51:38.893820,-8388608,-8388608,-8388608,-8388608,26718,-8388608,-8388608,-8388608
10:51:38.909966,-8388608,-8388608,-8388608,-8388608,232436,-8388608,-8388608,-8388608
10:51:38.913954,-8388608,-8388608,-8388608,-8388608,1176872,-8388608,-8388608,-8388608
10:51:38.916702,-8388608,-8388608,-8388608,-8388608,1501410,-8388608,-8388608,-8388608
10:51:38.916702,-8388608,-8388608,-8388608,-8388608,1063544,-8388608,-8388608,-8388608
10:51:38.925465,-8388608,-8388608,-8388608,-8388608,634850,-8388608,-8388608,-8388608
10:51:38.926738,-8388608,-8388608,-8388608,-8388608,801398,-8388608,-8388608,-8388608
10:51:38.926738,-8388608,-8388608,-8388608,-8388608,1289335,-8388608,-8388608,-8388608
10:51:38.926738,-8388608,-8388608,-8388608,-8388608,1433307,-8388608,-8388608,-8388608
10:51:38.942239,-8388608,-8388608,-8388608,-8388608,1101928,-8388608,-8388608,-8388608
10:51:38.943896,-8388608,-8388608,-8388608,-8388608,777888,-8388608,-8388608,-8388608
10:51:38.943896,-8388608,-8388608,-8388608,-8388608,902733,-8388608,-8388608,-8388608
10:51:38.943896,-8388608,-8388608,-8388608,-8388608,1337623,-8388608,-8388608,-8388608
10:51:38.943896,-8388608,-8388608,-8388608,-8388608,1469969,-8388608,-8388608,-8388608
10:51:38.960322,-8388608,-8388608,-8388608,-8388608,1087703,-8388608,-8388608,-8388608
10:51:38.960322,-8388608,-8388608,-8388608,-8388608,705887,-8388608,-8388608,-8388608
10:51:38.960322,-8388608,-8388608,-8388608,-8388608,838478,-8388608,-8388608,-8388608
10:51:38.960322,-8388608,-8388608,-8388608,-8388608,1360791,-8388608,-8388608,-8388608
10:51:38.977109,-8388608,-8388608,-8388608,-8388608,1537050,-8388608,-8388608,-8388608
10:51:38.977109,-8388608,-8388608,-8388608,-8388608,1100683,-8388608,-8388608,-8388608
10:51:38.977109,-8388608,-8388608,-8388608,-8388608,674438,-8388608,-8388608,-8388608
10:51:38.977109,-8388608,-8388608,-8388608,-8388608,807273,-8388608,-8388608,-8388608
10:51:38.993122,-8388608,-8388608,-8388608,-8388608,1337773,-8388608,-8388608,-8388608
10:51:38.996859,-8388608,-8388608,-8388608,-8388608,1501873,-8388608,-8388608,-8388608
10:51:38.999483,-8388608,-8388608,-8388608,-8388608,1071875,-8388608,-8388608,-8388608
10:51:38.999483,-8388608,-8388608,-8388608,-8388608,635038,-8388608,-8388608,-8388608
10:51:39.009858,-8388608,-8388608,-8388608,-8388608,763321,-8388608,-8388608,-8388608
10:51:39.013681,-8388608,-8388608,-8388608,-8388608,1281352,-8388608,-8388608,-8388608
10:51:39.016727,-8388608,-8388608,-8388608,-8388608,1450605,-8388608,-8388608,-8388608
10:51:39.016727,-8388608,-8388608,-8388608,-8388608,1030615,-8388608,-8388608,-8388608
10:51:39.025373,-8388608,-8388608,-8388608,-8388608,576740,-8388608,-8388608,-8388608
10:51:39.029502,-8388608,-8388608,-8388608,-8388608,729269,-8388608,-8388608,-8388608
10:51:39.033561,-8388608,-8388608,-8388608,-8388608,1344191,-8388608,-8388608,-8388608
10:51:39.038579,-8388608,-8388608,-8388608,-8388608,1543248,-8388608,-8388608,-8388608
10:51:39.042341,-8388608,-8388608,-8388608,-8388608,1037808,-8388608,-8388608,-8388608
10:51:39.042922,-8388608,-8388608,-8388608,-8388608,504441,-8388608,-8388608,-8388608
10:51:39.042922,-8388608,-8388608,-8388608,-8388608,652850,-8388608,-8388608,-8388608
10:51:39.042922,-8388608,-8388608,-8388608,-8388608,1300040,-8388608,-8388608,-8388608
10:51:39.042922,-8388608,-8388608,-8388608,-8388608,1535336,-8388608,-8388608,-8388608
10:51:39.060291,-8388608,-8388608,-8388608,-8388608,994458,-8388608,-8388608,-8388608
10:51:39.060291,-8388608,-8388608,-8388608,-8388608,380948,-8388608,-8388608,-8388608
10:51:39.060291,-8388608,-8388608,-8388608,-8388608,545921,-8388608,-8388608,-8388608
10:51:39.060291,-8388608,-8388608,-8388608,-8388608,1284514,-8388608,-8388608,-8388608
10:51:39.076864,-8388608,-8388608,-8388608,-8388608,1579599,-8388608,-8388608,-8388608
10:51:39.076864,-8313971,-8388608,-8388608,-8388608,1001139,-8388608,-8388608,-8388608
10:51:39.076864,-4851783,-8388608,-8388608,-8388608,236863,-8388608,-8388608,-8388608
10:51:39.076864,-3083271,-8388608,-8388608,-8388608,378645,-8388608,-8388608,-8388608
10:51:39.093413,-5688356,-8388608,-8388608,-8388608,1321384,-8388608,-8388608,-8388608
10:51:39.093413,-8358142,-8388608,-8388608,-8388608,1716369,-8388608,-8388608,-8388608
10:51:39.093413,-6542033,-8388608,-8388608,-8388608,945366,-8388608,-8388608,-8388608
10:51:39.093413,-580147,-8388608,-8388608,-8388608,-194796,-8388608,-8388608,-8388608
10:51:39.109653,2256849,-8293856,-8340062,-8293724,-71401,-8388608,-8388608,-8388608
10:51:39.109904,-1754768,-8388608,-8388608,-8388608,1266999,-8388608,-8388608,-8388608
10:51:39.116971,-6924254,-8388608,-8388608,-8388608,2040753,-8388608,-8388608,-8388608
10:51:39.116971,-5898537,-8388608,-8388608,-8388608,1226596,-8388608,-8388608,-8388608
10:51:39.126406,30773,-8388608,-8388608,-8388608,16974,-8388608,-8388608,-8388608
10:51:39.129561,2619515,-8295583,-8367050,-8313078,119969,-8388608,-8388608,-8388608
10:51:39.130253,-1387154,-8388608,-8388608,-8388608,1366872,-8388608,-8388608,-8388608
10:51:39.130253,-6372449,-8388608,-8388608,-8388608,2045459,-8388608,-8388608,-8388608
10:51:39.130253,-4864041,-8388608,-8388608,-8388608,1102887,-8388608,-8388608,-8388608
10:51:39.143079,3429198,-8309027,-8388608,-8338578,-531841,-8388608,-8388608,-8388608
10:51:39.143079,7895061,-8002474,-8091596,-8037328,-611717,-8388608,-8388608,-8388608
10:51:39.143079,3368014,-8222207,-8321678,-8256332,1063966,-8388608,-8388608,-8388608
10:51:39.143079,-4501622,-8388608,-8388608,-8388608,2270779,-8388608,-8388608,-8388608
10:51:39.160199,-4511571,-8388608,-8388608,-8388608,1416684,-8388608,-8388608,-8388608
10:51:39.160199,3611521,-8325424,-8388608,-8369189,-297624,-8388608,-8388608,-8388608
10:51:39.160199,7984892,-8030066,-8141186,-8079070,-450697,-8388608,-8388608,-8388608
10:51:39.160199,3392293,-8257530,-8379380,-8305781,1170074,-8388608,-8388608,-8388608
10:51:39.176648,-4887091,-8388608,-8388608,-8388608,2377861,-8388608,-8388608,-8388608
10:51:39.176648,-4994696,-8388608,-8388608,-8388608,1514200,-8388608,-8388608,-8388608
10:51:39.176648,3343458,-8378643,-8388608,-8388608,-220735,-8388608,-8388608,-8388608
10:51:39.176648,7908600,-8073137,-8204827,-8134038,-417791,-8388608,-8388608,-8388608
10:51:39.193323,3217113,-8309915,-8388608,-8370192,1183085,-8388608,-8388608,-8388608
10:51:39.193323,-5141751,-8388608,-8388608,-8388608,2403600,-8388608,-8388608,-8388608
10:51:39.193323,-5260946,-8388608,-8388608,-8388608,1565868,-8388608,-8388608,-8388608
10:51:39.193323,3260460,-8388608,-8388608,-8388608,-184614,-8388608,-8388608,-8388608
10:51:39.209667,7940884,-8107294,-8257675,-8179574,-408366,-8388608,-8388608,-8388608
10:51:39.212377,3307729,-8339356,-8388608,-8388608,1183054,-8388608,-8388608,-8388608
10:51:39.213629,-5193381,-8388608,-8388608,-8388608,2402413,-8388608,-8388608,-8388608
10:51:39.217135,-5377658,-8388608,-8388608,-8388608,1580139,-8388608,-8388608,-8388608
10:51:39.225140,3270368,-8388608,-8388608,-8388608,-163683,-8388608,-8388608,-8388608
10:51:39.229142,7986404,-8141280,-8308661,-8223584,-397702,-8388608,-8388608,-8388608
10:51:39.233809,3350198,-8375379,-8388608,-8388608,1167303,-8388608,-8388608,-8388608
10:51:39.236882,-5397295,-8388608,-8388608,-8388608,2397037,-8388608,-8388608,-8388608
10:51:39.240768,-5648952,-8388608,-8388608,-8388608,1597123,-8388608,-8388608,-8388608
10:51:39.242924,3186306,-8388608,-8388608,-8388608,-151726,-8388608,-8388608,-8388608
10:51:39.242924,7999462,-8174002,-8357402,-8265092,-401906,-8388608,-8388608,-8388608
10:51:39.242924,3362660,-8388608,-8388608,-8388608,1155674,-8388608,-8388608,-8388608
10:51:39.242924,-5543992,-8388608,-8388608,-8388608,2395279,-8388608,-8388608,-8388608
10:51:39.259481,-5884400,-8388608,-8388608,-8388608,1612594,-8388608,-8388608,-8388608
10:51:39.259481,3065614,-8388608,-8388608,-8388608,-132567,-8388608,-8388608,-8388608
10:51:39.259481,7992576,-8207732,-8388608,-8306329,-401447,-8388608,-8388608,-8388608
10:51:39.259481,3320907,-8388608,-8388608,-8388608,1139483,-8388608,-8388608,-8388608
10:51:39.276276,-5776411,-8388608,-8388608,-8388608,2401664,-8388608,-8388608,-8388608
10:51:39.276276,-6224847,-8388608,-8388608,-8388608,1654131,-8388608,-8388608,-8388608
10:51:39.276276,2861233,-8388608,-8388608,-8388608,-111067,-8388608,-8388608,-8388608
10:51:39.276276,7976269,-8242554,-8388608,-8348339,-428007,-8388608,-8388608,-8388608
10:51:39.292996,3313298,-8388608,-8388608,-8388608,1096596,-8388608,-8388608,-8388608
10:51:39.293309,-5897152,-8388608,-8388608,-8388608,2390778,-8388608,-8388608,-8388608
10:51:39.293309,-6366666,-8388608,-8388608,-8388608,1660998,-8388608,-8388608,-8388608
10:51:39.293309,2842683,-8388608,-8388608,-8388608,-101721,-8388608,-8388608,-8388608
10:51:39.309610,8006164,-8269494,-8388608,-8381448,-427276,-8388608,-8388608,-8388608
10:51:39.310240,3302577,-8388608,-8388608,-8388608,1076723,-8388608,-8388608,-8388608
10:51:39.317343,-6036204,-8388608,-8388608,-8388608,2372407,-8388608,-8388608,-8388608
10:51:39.317343,-6530286,-8388608,-8388608,-8388608,1656916,-8388608,-8388608,-8388608
10:51:39.317343,2740360,-8388608,-8388608,-8388608,-98479,-8388608,-8388608,-8388608
10:51:39.326788,8003495,-8299939,-8388608,-8388608,-433220,-8388608,-8388608,-8388608
10:51:39.326788,3286690,-8388608,-8388608,-8388608,1068248,-8388608,-8388608,-8388608
10:51:39.326788,-6120244,-8388608,-8388608,-8388608,2380006,-8388608,-8388608,-8388608
10:51:39.341783,-6729883,-8388608,-8388608,-8388608,1696035,-8388608,-8388608,-8388608
10:51:39.344874,2440044,-8388608,-8388608,-8388608,-54992,-8388608,-8388608,-8388608
10:51:39.348498,7908984,-8332360,-8388608,-8388608,-414419,-8388608,-8388608,-8388608
10:51:39.348498,3084606,-8388608,-8388608,-8388608,1073161,-8388608,-8388608,-8388608
10:51:39.348498,-6340114,-8388608,-8388608,-8388608,2398163,-8388608,-8388608,-8388608
10:51:39.359659,-6944039,-8388608,-8388608,-8388608,1717403,-8388608,-8388608,-8388608
10:51:39.359659,2152387,-8388608,-8388608,-8388608,-28926,-8388608,-8388608,-8388608
10:51:39.359659,7840441,-8364569,-8388608,-8388608,-418737,-8388608,-8388608,-8388608
10:51:39.359659,3041563,-8388608,-8388608,-8388608,1046359,-8388608,-8388608,-8388608
10:51:39.376940,-6370122,-8388608,-8388608,-8388608,2371728,-8388608,-8388608,-8388608
10:51:39.376940,-7022302,-8388608,-8388608,-8388608,1735948,-8388608,-8388608,-8388608
10:51:39.376940,2061941,-8388608,-8388608,-8388608,-15475,-8388608,-8388608,-8388608
10:51:39.376940,7854430,-8388608,-8388608,-8388608,-426379,-8388608,-8388608,-8388608
10:51:39.393394,3176082,-8388608,-8388608,-8388608,1021528,-8388608,-8388608,-8388608
10:51:39.393394,-6298451,-8388608,-8388608,-8388608,2361574,-8388608,-8388608,-8388608
10:51:39.393394,-7071577,-8388608,-8388608,-8388608,1740473,-8388608,-8388608,-8388608
10:51:39.393394,2017003,-8388608,-8388608,-8388608,-6801,-8388608,-8388608,-8388608
10:51:39.409458,7884216,-8388608,-8388608,-8388608,-436212,-8388608,-8388608,-8388608
10:51:39.410071,3340714,-8388608,-8388608,-8388608,994432,-8388608,-8388608,-8388608
10:51:39.410071,-6198593,-8388608,-8388608,-8388608,2348417,-8388608,-8388608,-8388608
10:51:39.417636,-7105572,-8388608,-8388608,-8388608,1757524,-8388608,-8388608,-8388608
10:51:39.426241,1972820,-8388608,-8388608,-8388608,5118,-8388608,-8388608,-8388608
10:51:39.426670,7899484,-8388608,-8388608,-8388608,-440531,-8388608,-8388608,-8388608
10:51:39.432641,3444875,-8388608,-8388608,-8388608,981693,-8388608,-8388608,-8388608
10:51:39.432641,-6151279,-8388608,-8388608,-8388608,2342888,-8388608,-8388608,-8388608
10:51:39.432641,-7167936,-8388608,-8388608,-8388608,1774143,-8388608,-8388608,-8388608
10:51:39.444888,1883044,-8388608,-8388608,-8388608,18848,-8388608,-8388608,-8388608
10:51:39.448979,7903270,-8388608,-8388608,-8388608,-457343,-8388608,-8388608,-8388608
10:51:39.454192,3543953,-8388608,-8388608,-8388608,957819,-8388608,-8388608,-8388608
10:51:39.457370,-6127429,-8388608,-8388608,-8388608,2339064,-8388608,-8388608,-8388608
10:51:39.459405,-7287439,-8388608,-8388608,-8388608,1797294,-8388608,-8388608,-8388608
10:51:39.459405,1703144,-8388608,-8388608,-8388608,52202,-8388608,-8388608,-8388608
10:51:39.459405,7880483,-8388608,-8388608,-8388608,-458859,-8388608,-8388608,-8388608
10:51:39.459405,3587062,-8388608,-8388608,-8388608,922659,-8388608,-8388608,-8388608
10:51:39.476636,-6127097,-8388608,-8388608,-8388608,2335864,-8388608,-8388608,-8388608
10:51:39.476636,-7337123,-8388608,-8388608,-8388608,1814816,-8388608,-8388608,-8388608
10:51:39.476636,1620710,-8388608,-8388608,-8388608,64476,-8388608,-8388608,-8388608
10:51:39.476636,7874562,-8388608,-8388608,-8388608,-458108,-8388608,-8388608,-8388608
10:51:39.493172,3647808,-8388608,-8388608,-8388608,915698,-8388608,-8388608,-8388608
10:51:39.493172,-6111252,-8388608,-8388608,-8388608,2336296,-8388608,-8388608,-8388608
10:51:39.493172,-7443452,-8388608,-8388608,-8388608,1837662,-8388608,-8388608,-8388608
10:51:39.493172,1430821,-8388608,-8388608,-8388608,94391,-8388608,-8388608,-8388608
10:51:39.508379,7849659,-8388608,-8388608,-8388608,-462822,-8388608,-8388608,-8388608
10:51:39.509846,3757205,-8388608,-8388608,-8388608,883697,-8388608,-8388608,-8388608
10:51:39.509846,-6037094,-8388608,-8388608,-8388608,2320941,-8388608,-8388608,-8388608
10:51:39.517862,-7471694,-8388608,-8388608,-8388608,1843959,-8388608,-8388608,-8388608
10:51:39.525158,1406533,-8388608,-8388608,-8388608,94006,-8388608,-8388608,-8388608
10:51:39.526800,7878848,-8388608,-8388608,-8388608,-482158,-8388608,-8388608,-8388608
10:51:39.526800,3944643,-8388608,-8388608,-8388608,842828,-8388608,-8388608,-8388608
10:51:39.526800,-5897435,-8388608,-8388608,-8388608,2291631,-8388608,-8388608,-8388608
10:51:39.526800,-7472336,-8388608,-8388608,-8388608,1853138,-8388608,-8388608,-8388608
10:51:39.543554,1399147,-8388608,-8388608,-8388608,113571,-8388608,-8388608,-8388608
10:51:39.543554,7897544,-8388608,-8388608,-8388608,-476777,-8388608,-8388608,-8388608
10:51:39.543554,4063026,-8388608,-8388608,-8388608,831708,-8388608,-8388608,-8388608
10:51:39.543554,-5801534,-8388608,-8388608,-8388608,2288333,-8388608,-8388608,-8388608
10:51:39.561389,-7546723,-8388608,-8388608,-8388608,1879969,-8388608,-8388608,-8388608
10:51:39.565387,1135624,-8388608,-8388608,-8388608,149228,-8388608,-8388608,-8388608
10:51:39.566796,7786882,-8388608,-8388608,-8388608,-456229,-8388608,-8388608,-8388608
10:51:39.566796,3943211,-8388608,-8388608,-8388608,842156,-8388608,-8388608,-8388608
10:51:39.575860,-5877276,-8388608,-8388608,-8388608,2301165,-8388608,-8388608,-8388608
10:51:39.575860,-7650687,-8388608,-8388608,-8388608,1898136,-8388608,-8388608,-8388608
10:51:39.575860,870753,-8388608,-8388608,-8388608,171111,-8388608,-8388608,-8388608
10:51:39.575860,7700640,-8388608,-8388608,-8388608,-456541,-8388608,-8388608,-8388608
10:51:39.592947,3986988,-8388608,-8388608,-8388608,833122,-8388608,-8388608,-8388608
10:51:39.595077,-5803134,-8388608,-8388608,-8388608,2304160,-8388608,-8388608,-8388608
10:51:39.595077,-7669482,-8388608,-8388608,-8388608,1910376,-8388608,-8388608,-8388608
10:51:39.595077,780359,-8388608,-8388608,-8388608,174461,-8388608,-8388608,-8388608
10:51:39.609302,7681943,-8388608,-8388608,-8388608,-473849,-8388608,-8388608,-8388608
10:51:39.609500,4120136,-8388608,-8388608,-8388608,792538,-8388608,-8388608,-8388608
10:51:39.609500,-5678078,-8388608,-8388608,-8388608,2285610,-8388608,-8388608,-8388608
10:51:39.618092,-7709461,-8388608,-8388608,-8388608,1927575,-8388608,-8388608,-8388608
10:51:39.618092,673873,-8388608,-8388608,-8388608,184042,-8388608,-8388608,-8388608
10:51:39.626299,7670689,-8388608,-8388608,-8388608,-494254,-8388608,-8388608,-8388608
10:51:39.631953,4234543,-8388608,-8388608,-8388608,769050,-8388608,-8388608,-8388608
10:51:39.631953,-5601337,-8388608,-8388608,-8388608,2287799,-8388608,-8388608,-8388608
10:51:39.631953,-7770666,-8388608,-8388608,-8388608,1954731,-8388608,-8388608,-8388608
10:51:39.643824,535636,-8388608,-8388608,-8388608,209502,-8388608,-8388608,-8388608
10:51:39.647716,7659027,-8388608,-8388608,-8388608,-497363,-8388608,-8388608,-8388608
10:51:39.652560,4442778,-8388608,-8388608,-8388608,739428,-8388608,-8388608,-8388608
10:51:39.656562,-5395300,-8388608,-8388608,-8388608,2272208,-8388608,-8388608,-8388608
10:51:39.659773,-7789190,-8388608,-8388608,-8388608,1963869,-8388608,-8388608,-8388608
10:51:39.663279,397822,-8388608,-8388608,-8388608,227910,-8388608,-8388608,-8388608
10:51:39.663279,7613798,-8388608,-8388608,-8388608,-486794,-8388608,-8388608,-8388608
10:51:39.663279,4550708,-8388608,-8388608,-8388608,731316,-8388608,-8388608,-8388608
10:51:39.676137,-5264096,-8388608,-8388608,-8388608,2267884,-8388608,-8388608,-8388608
10:51:39.676137,-7824266,-8388608,-8388608,-8388608,1982518,-8388608,-8388608,-8388608
10:51:39.676137,207885,-8388608,-8388608,-8388608,252548,-8388608,-8388608,-8388608
10:51:39.676137,7533156,-8388608,-8388608,-8388608,-493342,-8388608,-8388608,-8388608
10:51:39.692866,4585694,-8388608,-8388608,-8388608,714098,-8388608,-8388608,-8388608
10:51:39.692866,-5193725,-8388608,-8388608,-8388608,2252419,-8388608,-8388608,-8388608
10:51:39.692866,-7851187,-8388608,-8388608,-8388608,1986505,-8388608,-8388608,-8388608
10:51:39.692866,107304,-8388608,-8388608,-8388608,258279,-8388608,-8388608,-8388608
10:51:39.709220,7511254,-8388608,-8388608,-8388608,-496858,-8388608,-8388608,-8388608
10:51:39.709869,4687228,-8388608,-8388608,-8388608,695171,-8388608,-8388608,-8388608
10:51:39.709869,-5108929,-8388608,-8388608,-8388608,2257476,-8388608,-8388608,-8388608
10:51:39.718491,-7934829,-8388608,-8388608,-8388608,2017674,-8388608,-8388608,-8388608
10:51:39.726559,-165911,-8388608,-8388608,-8388608,286033,-8388608,-8388608,-8388608
10:51:39.726559,7418439,-8388608,-8388608,-8388608,-501679,-8388608,-8388608,-8388608
10:51:39.726559,4832252,-8388608,-8388608,-8388608,674125,-8388608,-8388608,-8388608
10:51:39.726559,-4918034,-8388608,-8388608,-8388608,2248806,-8388608,-8388608,-8388608
10:51:39.726559,-7896899,-8388608,-8388608,-8388608,2021191,-8388608,-8388608,-8388608
10:51:39.743127,-125825,-8388608,-8388608,-8388608,292891,-8388608,-8388608,-8388608
10:51:39.743127,7457046,-8388608,-8388608,-8388608,-511807,-8388608,-8388608,-8388608
10:51:39.743127,5002961,-8388608,-8388608,-8388608,644147,-8388608,-8388608,-8388608
10:51:39.743127,-4728111,-8388608,-8388608,-8388608,2235747,-8388608,-8388608,-8388608
10:51:39.760125,-7851949,-8388608,-8388608,-8388608,2038150,-8388608,-8388608,-8388608
10:51:39.760125,-25139,-8388608,-8388608,-8388608,302094,-8388608,-8388608,-8388608
10:51:39.760125,7535676,-8388608,-8388608,-8388608,-522372,-8388608,-8388608,-8388608
10:51:39.760125,5165071,-8388608,-8388608,-8388608,629563,-8388608,-8388608,-8388608
10:51:39.776919,-4626939,-8388608,-8388608,-8388608,2247151,-8388608,-8388608,-8388608
10:51:39.780569,-7940595,-8388608,-8388608,-8388608,2080983,-8388608,-8388608,-8388608
10:51:39.780850,-258584,-8388608,-8388608,-8388608,347395,-8388608,-8388608,-8388608
10:51:39.780850,7468021,-8388608,-8388608,-8388608,-510865,-8388608,-8388608,-8388608
10:51:39.792555,5203443,-8388608,-8388608,-8388608,614619,-8388608,-8388608,-8388608
10:51:39.792555,-4618221,-8388608,-8388608,-8388608,2249971,-8388608,-8388608,-8388608
10:51:39.792555,-8040958,-8388608,-8388608,-8388608,2112729,-8388608,-8388608,-8388608
10:51:39.792555,-532241,-8388608,-8388608,-8388608,373701,-8388608,-8388608,-8388608
10:51:39.809609,7385731,-8388608,-8388608,-8388608,-525483,-8388608,-8388608,-8388608
10:51:39.809609,5366885,-8388608,-8388608,-8388608,578283,-8388608,-8388608,-8388608
10:51:39.809609,-4407123,-8388608,-8388608,-8388608,2246711,-8388608,-8388608,-8388608
10:51:39.818640,-8066358,-8388608,-8388608,-8388608,2151434,-8388608,-8388608,-8388608
10:51:39.818640,-703954,-8388608,-8388608,-8388608,399687,-8388608,-8388608,-8388608
10:51:39.826094,7337967,-8388608,-8388608,-8388608,-543606,-8388608,-8388608,-8388608
10:51:39.831679,5522722,-8388608,-8388608,-8388608,549130,-8388608,-8388608,-8388608
10:51:39.831679,-4231206,-8388608,-8388608,-8388608,2234087,-8388608,-8388608,-8388608
10:51:39.831679,-8075793,-8388608,-8388608,-8388608,2164558,-8388608,-8388608,-8388608
10:51:39.844658,-801706,-8388608,-8388608,-8388608,409127,-8388608,-8388608,-8388608
10:51:39.848855,7311458,-8388608,-8388608,-8388608,-555841,-8388608,-8388608,-8388608
10:51:39.852827,5612279,-8388608,-8388608,-8388608,516104,-8388608,-8388608,-8388608
10:51:39.856833,-4117450,-8388608,-8388608,-8388608,2228526,-8388608,-8388608,-8388608
10:51:39.859199,-8075916,-8388608,-8388608,-8388608,2187236,-8388608,-8388608,-8388608
10:51:39.859199,-851604,-8388608,-8388608,-8388608,429064,-8388608,-8388608,-8388608
10:51:39.859199,7304614,-8388608,-8388608,-8388608,-558076,-8388608,-8388608,-8388608
10:51:39.859199,5731520,-8388608,-8388608,-8388608,490978,-8388608,-8388608,-8388608
10:51:39.876644,-3969599,-8388608,-8388608,-8388608,2209998,-8388608,-8388608,-8388608
10:51:39.880683,-8055733,-8388608,-8388608,-8388608,2183998,-8388608,-8388608,-8388608
10:51:39.880683,-847926,-8388608,-8388608,-8388608,439907,-8388608,-8388608,-8388608
10:51:39.880683,7315851,-8388608,-8388608,-8388608,-552099,-8388608,-8388608,-8388608
10:51:39.892600,5774601,-8388608,-8388608,-8388608,488219,-8388608,-8388608,-8388608
10:51:39.892600,-3902495,-8388608,-8388608,-8388608,2200069,-8388608,-8388608,-8388608
10:51:39.892600,-8035716,-8388608,-8388608,-8388608,2178087,-8388608,-8388608,-8388608
10:51:39.892600,-843723,-8388608,-8388608,-8388608,450119,-8388608,-8388608,-8388608
10:51:39.908028,7304729,-8388608,-8388608,-8388608,-523982,-8388608,-8388608,-8388608
10:51:39.909208,5724524,-8388608,-8388608,-8388608,508336,-8388608,-8388608,-8388608
10:51:39.909208,-3910444,-8388608,-8388608,-8388608,2179585,-8388608,-8388608,-8388608
10:51:39.918719,-8012749,-8388608,-8388608,-8388608,2149969,-8388608,-8388608,-8388608
10:51:39.918719,-877119,-8388608,-8388608,-8388608,465537,-8388608,-8388608,-8388608
10:51:39.926605,7257724,-8388608,-8388608,-8388608,-503252,-8388608,-8388608,-8388608
10:51:39.926605,5755139,-8388608,-8388608,-8388608,502649,-8388608,-8388608,-8388608
10:51:39.926605,-3837576,-8388608,-8388608,-8388608,2178187,-8388608,-8388608,-8388608
10:51:39.926605,-8040056,-8388608,-8388608,-8388608,2178031,-8388608,-8388608,-8388608
10:51:39.942479,-1023832,-8388608,-8388608,-8388608,482684,-8388608,-8388608,-8388608
10:51:39.942479,7206338,-8388608,-8388608,-8388608,-517459,-8388608,-8388608,-8388608
10:51:39.942479,5920796,-8388608,-8388608,-8388608,467370,-8388608,-8388608,-8388608
10:51:39.942479,-3546659,-8388608,-8388608,-8388608,2152001,-8388608,-8388608,-8388608
10:51:39.959817,-7927324,-8388608,-8388608,-8388608,2168639,-8388608,-8388608,-8388608
10:51:39.959817,-897487,-8388608,-8388608,-8388608,489638,-8388608,-8388608,-8388608
10:51:39.959817,7266619,-8388608,-8388608,-8388608,-518291,-8388608,-8388608,-8388608
10:51:39.959817,6075797,-8388608,-8388608,-8388608,440258,-8388608,-8388608,-8388608
10:51:39.975990,-3277332,-8388608,-8388608,-8388608,2124676,-8388608,-8388608,-8388608
10:51:39.975990,-7820844,-8388608,-8388608,-8388608,2161984,-8388608,-8388608,-8388608
10:51:39.975990,-810442,-8388608,-8388608,-8388608,501988,-8388608,-8388608,-8388608
10:51:39.975990,7293896,-8388608,-8388608,-8388608,-508021,-8388608,-8388608,-8388608
10:51:39.992512,6116655,-8388608,-8388608,-8388608,450862,-8388608,-8388608,-8388608
10:51:39.996442,-3237732,-8388608,-8388608,-8388608,2143869,-8388608,-8388608,-8388608
10:51:39.998528,-7888462,-8388608,-8388608,-8388608,2202253,-8388608,-8388608,-8388608
10:51:39.998528,-1075474,-8388608,-8388608,-8388608,550091,-8388608,-8388608,-8388608
10:51:40.007923,7154545,-8388608,-8388608,-8388608,-478686,-8388608,-8388608,-8388608
10:51:40.008796,6081089,-8388608,-8388608,-8388608,448504,-8388608,-8388608,-8388608
10:51:40.008796,-3248155,-8388608,-8388608,-8388608,2137325,-8388608,-8388608,-8388608
10:51:40.018816,-7918878,-8388608,-8388608,-8388608,2210061,-8388608,-8388608,-8388608
10:51:40.024452,-1223141,-8388608,-8388608,-8388608,557406,-8388608,-8388608,-8388608
10:51:40.025544,7076383,-8388608,-8388608,-8388608,-483043,-8388608,-8388608,-8388608
10:51:40.025544,6132157,-8388608,-8388608,-8388608,437067,-8388608,-8388608,-8388608
10:51:40.025544,-3131394,-8388608,-8388608,-8388608,2120249,-8388608,-8388608,-8388608
10:51:40.025544,-7889922,-8388608,-8388608,-8388608,2212381,-8388608,-8388608,-8388608
10:51:40.042183,-1249700,-8388608,-8388608,-8388608,571573,-8388608,-8388608,-8388608
10:51:40.046667,7070023,-8388608,-8388608,-8388608,-482937,-8388608,-8388608,-8388608
10:51:40.046667,6231977,-8388608,-8388608,-8388608,409956,-8388608,-8388608,-8388608
10:51:40.046667,-2971114,-8388608,-8388608,-8388608,2102779,-8388608,-8388608,-8388608
10:51:40.059961,-7862522,-8388608,-8388608,-8388608,2219608,-8388608,-8388608,-8388608
10:51:40.063860,-1281560,-8388608,-8388608,-8388608,588335,-8388608,-8388608,-8388608
10:51:40.067934,7067989,-8388608,-8388608,-8388608,-483773,-8388608,-8388608,-8388608
10:51:40.072114,6328483,-8388608,-8388608,-8388608,390841,-8388608,-8388608,-8388608
10:51:40.075401,-2813948,-8388608,-8388608,-8388608,2085679,-8388608,-8388608,-8388608
10:51:40.075401,-7827901,-8388608,-8388608,-8388608,2212748,-8388608,-8388608,-8388608
10:51:40.075401,-1306926,-8388608,-8388608,-8388608,598738,-8388608,-8388608,-8388608
10:51:40.075401,7062825,-8388608,-8388608,-8388608,-484308,-8388608,-8388608,-8388608
10:51:40.091426,6412261,-8388608,-8388608,-8388608,372751,-8388608,-8388608,-8388608
10:51:40.095508,-2666277,-8388608,-8388608,-8388608,2072445,-8388608,-8388608,-8388608
10:51:40.097919,-7793064,-8388608,-8388608,-8388608,2222203,-8388608,-8388608,-8388608
10:51:40.097919,-1356170,-8388608,-8388608,-8388608,621012,-8388608,-8388608,-8388608
10:51:40.107900,7035496,-8388608,-8388608,-8388608,-476786,-8388608,-8388608,-8388608
10:51:40.108918,6503152,-8388608,-8388608,-8388608,358087,-8388608,-8388608,-8388608
10:51:40.108918,-2420712,-8388608,-8388608,-8388608,2052480,-8388608,-8388608,-8388608
10:51:40.118963,-7670437,-8388608,-8388608,-8388608,2226854,-8388608,-8388608,-8388608
10:51:40.125135,-1469287,-8388608,-8388608,-8388608,630867,-8388608,-8388608,-8388608
10:51:40.125135,6886841,-8388608,-8388608,-8388608,-479939,-8388608,-8388608,-8388608
10:51:40.125135,6571432,-8388608,-8388608,-8388608,342841,-8388608,-8388608,-8388608
10:51:40.125135,-1980529,-8388608,-8388608,-8388608,2057516,-8388608,-8388608,-8388608
10:51:40.140231,-7244651,-8388608,-8388608,-8388608,2249230,-8388608,-8388608,-8388608
10:51:40.142485,-1532351,-8388608,-8388608,-8388608,654585,-8388608,-8388608,-8388608
10:51:40.142485,6699756,-8388608,-8388608,-8388608,-486813,-8388608,-8388608,-8388608
10:51:40.142485,6657635,-8388608,-8388608,-8388608,305739,-8388608,-8388608,-8388608
10:51:40.142485,-1556895,-8388608,-8388608,-8388608,2019519,-8388608,-8388608,-8388608
10:51:40.158847,-6735918,-8388608,-8388608,-8388608,2245642,-8388608,-8388608,-8388608
10:51:40.158847,-1166084,-8388608,-8388608,-8388608,658265,-8388608,-8388608,-8388608
10:51:40.158847,6876448,-8388608,-8388608,-8388608,-496304,-8388608,-8388608,-8388608
10:51:40.158847,6826892,-8388608,-8388608,-8388608,280151,-8388608,-8388608,-8388608
10:51:40.175873,-1325569,-8388608,-8388608,-8388608,2003074,-8388608,-8388608,-8388608
10:51:40.175873,-6605721,-8388608,-8388608,-8388608,2239151,-8388608,-8388608,-8388608
10:51:40.175873,-906378,-8388608,-8388608,-8388608,662798,-8388608,-8388608,-8388608
10:51:40.175873,7087458,-8388608,-8388608,-8388608,-494491,-8388608,-8388608,-8388608
10:51:40.191078,6984230,-8388608,-8388608,-8388608,275488,-8388608,-8388608,-8388608
10:51:40.197197,-1124443,-8388608,-8388608,-8388608,2009419,-8388608,-8388608,-8388608
10:51:40.198800,-6575540,-8388608,-8388608,-8388608,2259556,-8388608,-8388608,-8388608
10:51:40.198800,-1075181,-8388608,-8388608,-8388608,711429,-8388608,-8388608,-8388608
10:51:40.209206,6950071,-8388608,-8388608,-8388608,-453226,-8388608,-8388608,-8388608
10:51:40.209206,6950165,-8388608,-8388608,-8388608,294876,-8388608,-8388608,-8388608
10:51:40.209206,-1037002,-8388608,-8388608,-8388608,2006764,-8388608,-8388608,-8388608
10:51:40.219275,-6435852,-8388608,-8388608,-8388608,2275399,-8388608,-8388608,-8388608
10:51:40.219275,-1168929,-8388608,-8388608,-8388608,733780,-8388608,-8388608,-8388608
10:51:40.225980,6827830,-8388608,-8388608,-8388608,-448669,-8388608,-8388608,-8388608
10:51:40.225980,6963116,-8388608,-8388608,-8388608,280414,-8388608,-8388608,-8388608
10:51:40.225980,-924721,-8388608,-8388608,-8388608,1996504,-8388608,-8388608,-8388608
10:51:40.225980,-6349481,-8388608,-8388608,-8388608,2283568,-8388608,-8388608,-8388608
10:51:40.242677,-1184133,-8388608,-8388608,-8388608,746049,-8388608,-8388608,-8388608
10:51:40.246528,6833011,-8388608,-8388608,-8388608,-450859,-8388608,-8388608,-8388608
10:51:40.248509,7033564,-8388608,-8388608,-8388608,252478,-8388608,-8388608,-8388608
10:51:40.248509,-870971,-8388608,-8388608,-8388608,1974776,-8388608,-8388608,-8388608
10:51:40.259630,-6479256,-8388608,-8388608,-8388608,2289686,-8388608,-8388608,-8388608
10:51:40.263465,-1348707,-8388608,-8388608,-8388608,770249,-8388608,-8388608,-8388608
10:51:40.268469,6790468,-8388608,-8388608,-8388608,-444078,-8388608,-8388608,-8388608
10:51:40.272457,7115693,-8388608,-8388608,-8388608,238421,-8388608,-8388608,-8388608
10:51:40.275401,-720141,-8388608,-8388608,-8388608,1963633,-8388608,-8388608,-8388608
10:51:40.275401,-6464776,-8388608,-8388608,-8388608,2299493,-8388608,-8388608,-8388608
10:51:40.275401,-1439042,-8388608,-8388608,-8388608,790647,-8388608,-8388608,-8388608
10:51:40.275401,6754411,-8388608,-8388608,-8388608,-439292,-8388608,-8388608,-8388608
10:51:40.291959,7149579,-8388608,-8388608,-8388608,219346,-8388608,-8388608,-8388608
10:51:40.294960,-687461,-8388608,-8388608,-8388608,1932407,-8388608,-8388608,-8388608
10:51:40.298290,-6514339,-8388608,-8388608,-8388608,2299724,-8388608,-8388608,-8388608
10:51:40.298290,-1517035,-8388608,-8388608,-8388608,810771,-8388608,-8388608,-8388608
10:51:40.298290,6726876,-8388608,-8388608,-8388608,-431560,-8388608,-8388608,-8388608
10:51:40.309055,7180601,-8388608,-8388608,-8388608,213518,-8388608,-8388608,-8388608
10:51:40.309055,-612067,-8388608,-8388608,-8388608,1922638,-8388608,-8388608,-8388608
10:51:40.319567,-6505320,-8388608,-8388608,-8388608,2298042,-8388608,-8388608,-8388608
10:51:40.319567,-1638167,-8388608,-8388608,-8388608,823596,-8388608,-8388608,-8388608
10:51:40.325829,6642716,-8388608,-8388608,-8388608,-421755,-8388608,-8388608,-8388608
10:51:40.325829,7150212,-8388608,-8388608,-8388608,203992,-8388608,-8388608,-8388608
10:51:40.325829,-751371,-8388608,-8388608,-8388608,1924865,-8388608,-8388608,-8388608
10:51:40.325829,-6788845,-8388608,-8388608,-8388608,2320704,-8388608,-8388608,-8388608
10:51:40.342472,-1887741,-8388608,-8388608,-8388608,854614,-8388608,-8388608,-8388608
10:51:40.342472,6585923,-8388608,-8388608,-8388608,-420241,-8388608,-8388608,-8388608
10:51:40.342472,7234408,-8388608,-8388608,-8388608,179319,-8388608,-8388608,-8388608
10:51:40.342472,-622516,-8388608,-8388608,-8388608,1901813,-8388608,-8388608,-8388608
10:51:40.359269,-6797518,-8388608,-8388608,-8388608,2322012,-8388608,-8388608,-8388608
10:51:40.359269,-1896457,-8388608,-8388608,-8388608,867451,-8388608,-8388608,-8388608
10:51:40.359269,6624927,-8388608,-8388608,-8388608,-418221,-8388608,-8388608,-8388608
10:51:40.359269,7321319,-8388608,-8388608,-8388608,159967,-8388608,-8388608,-8388608
10:51:40.375883,-448307,-8388608,-8388608,-8388608,1878045,-8388608,-8388608,-8388608
10:51:40.375883,-6719863,-8388608,-8388608,-8388608,2315774,-8388608,-8388608,-8388608
10:51:40.375883,-1890614,-8388608,-8388608,-8388608,882510,-8388608,-8388608,-8388608
10:51:40.375883,6664379,-8388608,-8388608,-8388608,-416478,-8388608,-8388608,-8388608
10:51:40.390922,7386328,-8388608,-8388608,-8388608,154578,-8388608,-8388608,-8388608
10:51:40.392393,-376324,-8388608,-8388608,-8388608,1871163,-8388608,-8388608,-8388608
10:51:40.392393,-6848436,-8388608,-8388608,-8388608,2337362,-8388608,-8388608,-8388608
10:51:40.392393,-2164178,-8388608,-8388608,-8388608,924215,-8388608,-8388608,-8388608
10:51:40.407644,6495884,-8388608,-8388608,-8388608,-370434,-8388608,-8388608,-8388608
10:51:40.411650,7322761,-8388608,-8388608,-8388608,167550,-8388608,-8388608,-8388608
10:51:40.415651,-507067,-8388608,-8388608,-8388608,1883549,-8388608,-8388608,-8388608
10:51:40.419795,-7011346,-8388608,-8388608,-8388608,2358092,-8388608,-8388608,-8388608
10:51:40.419795,-2472204,-8388608,-8388608,-8388608,953846,-8388608,-8388608,-8388608
10:51:40.425359,6273908,-8388608,-8388608,-8388608,-359014,-8388608,-8388608,-8388608
10:51:40.425359,7304239,-8388608,-8388608,-8388608,164779,-8388608,-8388608,-8388608
10:51:40.425359,-381446,-8388608,-8388608,-8388608,1862694,-8388608,-8388608,-8388608
10:51:40.425359,-6784626,-8388608,-8388608,-8388608,2352287,-8388608,-8388608,-8388608
10:51:40.442594,-2496784,-8388608,-8388608,-8388608,964922,-8388608,-8388608,-8388608
10:51:40.442594,6124278,-8388608,-8388608,-8388608,-364058,-8388608,-8388608,-8388608
10:51:40.442594,7307943,-8388608,-8388608,-8388608,137358,-8388608,-8388608,-8388608
10:51:40.442594,-123126,-8388608,-8388608,-8388608,1838697,-8388608,-8388608,-8388608
10:51:40.459221,-6394160,-8388608,-8388608,-8388608,2345698,-8388608,-8388608,-8388608
10:51:40.461930,-2491036,-8388608,-8388608,-8388608,978402,-8388608,-8388608,-8388608
10:51:40.465196,5882276,-8388608,-8388608,-8388608,-363642,-8388608,-8388608,-8388608
10:51:40.465196,7285946,-8388608,-8388608,-8388608,108326,-8388608,-8388608,-8388608
10:51:40.475425,142686,-8388608,-8388608,-8388608,1816282,-8388608,-8388608,-8388608
10:51:40.478939,-5942314,-8388608,-8388608,-8388608,2350807,-8388608,-8388608,-8388608
10:51:40.484125,-2212534,-8388608,-8388608,-8388608,1001616,-8388608,-8388608,-8388608
10:51:40.486761,5961643,-8388608,-8388608,-8388608,-346086,-8388608,-8388608,-8388608
10:51:40.490061,7312102,-8388608,-8388608,-8388608,100306,-8388608,-8388608,-8388608
10:51:40.492053,200839,-8388608,-8388608,-8388608,1794187,-8388608,-8388608,-8388608
10:51:40.492053,-5859698,-8388608,-8388608,-8388608,2350374,-8388608,-8388608,-8388608
10:51:40.492053,-2108934,-8388608,-8388608,-8388608,1017768,-8388608,-8388608,-8388608
10:51:40.507592,6085884,-8388608,-8388608,-8388608,-336779,-8388608,-8388608,-8388608
10:51:40.511691,7465518,-8388608,-8388608,-8388608,97569,-8388608,-8388608,-8388608
10:51:40.513038,546301,-8388608,-8388608,-8388608,1785359,-8388608,-8388608,-8388608
10:51:40.520099,-5585474,-8388608,-8388608,-8388608,2359880,-8388608,-8388608,-8388608
10:51:40.520099,-1993632,-8388608,-8388608,-8388608,1046761,-8388608,-8388608,-8388608
10:51:40.525236,6101708,-8388608,-8388608,-8388608,-318924,-8388608,-8388608,-8388608
10:51:40.525236,7515399,-8388608,-8388608,-8388608,90254,-8388608,-8388608,-8388608
10:51:40.525236,758086,-8388608,-8388608,-8388608,1787844,-8388608,-8388608,-8388608
10:51:40.540245,-5397284,-8388608,-8388608,-8388608,2399350,-8388608,-8388608,-8388608
10:51:40.542496,-2244564,-8388608,-8388608,-8388608,1107148,-8388608,-8388608,-8388608
10:51:40.542496,5648808,-8388608,-8388608,-8388608,-284977,-8388608,-8388608,-8388608
10:51:40.542496,7557918,-8388608,-8388608,-8388608,84884,-8388608,-8388608,-8388608
10:51:40.542496,1694876,-8388608,-8388608,-8388608,1774516,-8388608,-8388608,-8388608
10:51:40.558860,-4135131,-8388608,-8388608,-8388608,2391951,-8388608,-8388608,-8388608
10:51:40.558860,-3198514,-8388608,-8388608,-8388608,1106471,-8388608,-8388608,-8388608
10:51:40.558860,1610298,-8388608,-8388608,-8388608,-302061,-8388608,-8388608,-8388608
10:51:40.558860,3621336,-8388608,-8388608,-8388608,47843,-8388608,-8388608,-8388608
10:51:40.574170,653326,-8388608,-8388608,-8388608,1716336,-8388608,-8388608,-8388608
10:51:40.575631,-2756467,-8388608,-8388608,-8388608,2350501,-8388608,-8388608,-8388608
10:51:40.575631,-1114176,-8388608,-8388608,-8388608,1085084,-8388608,-8388608,-8388608
10:51:40.575631,3506693,-8388608,-8388608,-8388608,-330569,-8388608,-8388608,-8388608
10:51:40.591898,5474521,-8388608,-8388608,-8388608,-14009,-8388608,-8388608,-8388608
10:51:40.592318,2268292,-8388608,-8388608,-8388608,1651257,-8388608,-8388608,-8388608
10:51:40.592318,-1164756,-8388608,-8388608,-8388608,2314948,-8388608,-8388608,-8388608
10:51:40.592318,-220473,-8388608,-8388608,-8388608,1082721,-8388608,-8388608,-8388608
10:51:40.592318,3045575,-8388608,-8388608,-8388608,-322949,-8388608,-8388608,-8388608
10:51:40.609084,4430464,-8388608,-8388608,-8388608,-1268,-8388608,-8388608,-8388608
10:51:40.609084,4604294,-8388608,-8388608,-8388608,1650550,-8388608,-8388608,-8388608
10:51:40.620147,4639979,-8388608,-8388608,-8388608,2334191,-8388608,-8388608,-8388608
10:51:40.624007,4531199,-8388608,-8388608,-8388608,1143508,-8388608,-8388608,-8388608
10:51:40.627014,4403507,-8388608,-8388608,-8388608,-259964,-8388608,-8388608,-8388608
10:51:40.630643,4403164,-8388608,-8388608,-8388608,27076,-8388608,-8388608,-8388608
10:51:40.630643,4510064,-8388608,-8388608,-8388608,1660544,-8388608,-8388608,-8388608
10:51:40.640742,4549908,-8388608,-8388608,-8388608,2352301,-8388608,-8388608,-8388608
10:51:40.641714,4445434,-8388608,-8388608,-8388608,1174494,-8388608,-8388608,-8388608
10:51:40.641714,4320103,-8388608,-8388608,-8388608,-232142,-8388608,-8388608,-8388608
10:51:40.641714,4318649,-8388608,-8388608,-8388608,25372,-8388608,-8388608,-8388608
10:51:40.641714,4425576,-8388608,-8388608,-8388608,1651839,-8388608,-8388608,-8388608
10:51:40.658548,4466430,-8388608,-8388608,-8388608,2357091,-8388608,-8388608,-8388608
10:51:40.658548,4363959,-8388608,-8388608,-8388608,1197333,-8388608,-8388608,-8388608
10:51:40.658548,4238283,-8388608,-8388608,-8388608,-216131,-8388608,-8388608,-8388608
10:51:40.658548,4235864,-8388608,-8388608,-8388608,29352,-8388608,-8388608,-8388608
10:51:40.675732,4342786,-8388608,-8388608,-8388608,1636068,-8388608,-8388608,-8388608
10:51:40.678218,4385953,-8388608,-8388608,-8388608,2360488,-8388608,-8388608,-8388608
10:51:40.681682,4284648,-8388608,-8388608,-8388608,1236544,-8388608,-8388608,-8388608
10:51:40.681682,4158485,-8388608,-8388608,-8388608,-189974,-8388608,-8388608,-8388608
10:51:40.691783,4154930,-8388608,-8388608,-8388608,20256,-8388608,-8388608,-8388608
10:51:40.696684,4259826,-8388608,-8388608,-8388608,1614323,-8388608,-8388608,-8388608
10:51:40.700037,4304887,-8388608,-8388608,-8388608,2368268,-8388608,-8388608,-8388608
10:51:40.704098,4205908,-8388608,-8388608,-8388608,1263216,-8388608,-8388608,-8388608
10:51:40.707066,4080446,-8388608,-8388608,-8388608,-165033,-8388608,-8388608,-8388608
10:51:40.708984,4076427,-8388608,-8388608,-8388608,32633,-8388608,-8388608,-8388608
10:51:40.708984,4179650,-8388608,-8388608,-8388608,1610213,-8388608,-8388608,-8388608
10:51:40.708984,4224585,-8388608,-8388608,-8388608,2356381,-8388608,-8388608,-8388608
10:51:40.720555,4127953,-8388608,-8388608,-8388608,1273248,-8388608,-8388608,-8388608
10:51:40.728047,4003523,-8388608,-8388608,-8388608,-144175,-8388608,-8388608,-8388608
10:51:40.729964,3997224,-8388608,-8388608,-8388608,38381,-8388608,-8388608,-8388608
10:51:40.729964,4099721,-8388608,-8388608,-8388608,1600849,-8388608,-8388608,-8388608
10:51:40.729964,4147091,-8388608,-8388608,-8388608,2372617,-8388608,-8388608,-8388608
10:51:40.741493,4052748,-8388608,-8388608,-8388608,1316181,-8388608,-8388608,-8388608
10:51:40.741493,3928769,-8388608,-8388608,-8388608,-97879,-8388608,-8388608,-8388608
10:51:40.741493,3920921,-8388608,-8388608,-8388608,52389,-8388608,-8388608,-8388608
10:51:40.741493,4022888,-8388608,-8388608,-8388608,1612838,-8388608,-8388608,-8388608
10:51:40.758617,4072128,-8388608,-8388608,-8388608,2397629,-8388608,-8388608,-8388608
10:51:40.758617,3978040,-8388608,-8388608,-8388608,1337978,-8388608,-8388608,-8388608
10:51:40.758617,3852846,-8388608,-8388608,-8388608,-101132,-8388608,-8388608,-8388608
10:51:40.758617,3843973,-8388608,-8388608,-8388608,28843,-8388608,-8388608,-8388608
10:51:40.775586,3944039,-8388608,-8388608,-8388608,1563823,-8388608,-8388608,-8388608
10:51:40.775586,3991571,-8388608,-8388608,-8388608,2339368,-8388608,-8388608,-8388608
10:51:40.775586,3897609,-8388608,-8388608,-8388608,1294826,-8388608,-8388608,-8388608
10:51:40.775586,3771862,-8388608,-8388608,-8388608,-148029,-8388608,-8388608,-8388608
10:51:40.790515,3761845,-8388608,-8388608,-8388608,-37821,-8388608,-8388608,-8388608
10:51:40.791976,3861335,-8388608,-8388608,-8388608,1495899,-8388608,-8388608,-8388608
10:51:40.791976,3911030,-8388608,-8388608,-8388608,2292510,-8388608,-8388608,-8388608
10:51:40.791976,3820831,-8388608,-8388608,-8388608,1290013,-8388608,-8388608,-8388608
10:51:40.807270,3698444,-8388608,-8388608,-8388608,-130067,-8388608,-8388608,-8388608
10:51:40.808920,3687647,-8388608,-8388608,-8388608,-22382,-8388608,-8388608,-8388608
10:51:40.808920,3785276,-8388608,-8388608,-8388608,1494255,-8388608,-8388608,-8388608
10:51:40.808920,3835149,-8388608,-8388608,-8388608,2306057,-8388608,-8388608,-8388608
10:51:40.821054,3745801,-8388608,-8388608,-8388608,1322361,-8388608,-8388608,-8388608
10:51:40.825473,3623391,-8388608,-8388608,-8388608,-92774,-8388608,-8388608,-8388608
10:51:40.825473,3613357,-8388608,-8388608,-8388608,3389,-8388608,-8388608,-8388608
10:51:40.825473,3709054,-8388608,-8388608,-8388608,1498914,-8388608,-8388608,-8388608
10:51:40.825473,3759723,-8388608,-8388608,-8388608,2315473,-8388608,-8388608,-8388608
10:51:40.841563,3673261,-8388608,-8388608,-8388608,1358645,-8388608,-8388608,-8388608
10:51:40.846082,3550501,-8388608,-8388608,-8388608,-60782,-8388608,-8388608,-8388608
10:51:40.846829,3537647,-8388608,-8388608,-8388608,-810,-8388608,-8388608,-8388608
10:51:40.846829,3632155,-8388608,-8388608,-8388608,1483615,-8388608,-8388608,-8388608
10:51:40.858393,3684169,-8388608,-8388608,-8388608,2320876,-8388608,-8388608,-8388608
10:51:40.858393,3599087,-8388608,-8388608,-8388608,1383485,-8388608,-8388608,-8388608
10:51:40.858393,3475976,-8388608,-8388608,-8388608,-43516,-8388608,-8388608,-8388608
10:51:40.858393,3461894,-8388608,-8388608,-8388608,2930,-8388608,-8388608,-8388608
10:51:40.875027,3556250,-8388608,-8388608,-8388608,1483278,-8388608,-8388608,-8388608
10:51:40.875111,3610656,-8388608,-8388608,-8388608,2332431,-8388608,-8388608,-8388608
10:51:40.875111,3526132,-8388608,-8388608,-8388608,1407995,-8388608,-8388608,-8388608
10:51:40.875111,3401453,-8388608,-8388608,-8388608,-32446,-8388608,-8388608,-8388608
10:51:40.890616,3386091,-8388608,-8388608,-8388608,-3806,-8388608,-8388608,-8388608
10:51:40.892149,3479441,-8388608,-8388608,-8388608,1460196,-8388608,-8388608,-8388608
10:51:40.898013,3534299,-8388608,-8388608,-8388608,2318301,-8388608,-8388608,-8388608
10:51:40.898512,3455072,-8388608,-8388608,-8388608,1451011,-8388608,-8388608,-8388608
10:51:40.898512,3337059,-8388608,-8388608,-8388608,97469,-8388608,-8388608,-8388608
10:51:40.910971,3314823,-8388608,-8388608,-8388608,52663,-8388608,-8388608,-8388608
10:51:40.915512,3384439,-8388608,-8388608,-8388608,1247681,-8388608,-8388608,-8388608
10:51:40.919754,3432684,-8388608,-8388608,-8388608,2024411,-8388608,-8388608,-8388608
10:51:40.922383,3374181,-8388608,-8388608,-8388608,1405658,-8388608,-8388608,-8388608
10:51:40.925771,3275721,-8388608,-8388608,-8388608,284169,-8388608,-8388608,-8388608
10:51:40.925771,3251840,-8388608,-8388608,-8388608,210484,-8388608,-8388608,-8388608
10:51:40.925771,3313327,-8388608,-8388608,-8388608,1292813,-8388608,-8388608,-8388608
10:51:40.925771,3357226,-8388608,-8388608,-8388608,2031362,-8388608,-8388608,-8388608
10:51:40.941644,3300826,-8388608,-8388608,-8388608,1425819,-8388608,-8388608,-8388608
10:51:40.941644,3201384,-8388608,-8388608,-8388608,292560,-8388608,-8388608,-8388608
10:51:40.941644,3176358,-8388608,-8388608,-8388608,201859,-8388608,-8388608,-8388608
10:51:40.941644,3237926,-8388608,-8388608,-8388608,1283104,-8388608,-8388608,-8388608
10:51:40.958254,3282343,-8388608,-8388608,-8388608,2032177,-8388608,-8388608,-8388608
10:51:40.962380,3226457,-8388608,-8388608,-8388608,1437008,-8388608,-8388608,-8388608
10:51:40.963795,3129841,-8388608,-8388608,-8388608,317304,-8388608,-8388608,-8388608
10:51:40.963795,3104566,-8388608,-8388608,-8388608,216361,-8388608,-8388608,-8388608
10:51:40.974980,3165125,-8388608,-8388608,-8388608,1295235,-8388608,-8388608,-8388608
10:51:40.978556,3214040,-8388608,-8388608,-8388608,2107004,-8388608,-8388608,-8388608
10:51:40.982569,3155663,-8388608,-8388608,-8388608,1477834,-8388608,-8388608,-8388608
10:51:40.986501,3046343,-8388608,-8388608,-8388608,203602,-8388608,-8388608,-8388608
10:51:40.990331,3019148,-8388608,-8388608,-8388608,84336,-8388608,-8388608,-8388608
10:51:40.994437,3090971,-8388608,-8388608,-8388608,1312236,-8388608,-8388608,-8388608
10:51:40.998633,3143071,-8388608,-8388608,-8388608,2158958,-8388608,-8388608,-8388608
10:51:40.998633,3078546,-8388608,-8388608,-8388608,1445033,-8388608,-8388608,-8388608
10:51:40.998633,2964242,-8388608,-8388608,-8388608,95642,-8388608,-8388608,-8388608
10:51:41.008371,2937965,-8388608,-8388608,-8388608,-16247,-8388608,-8388608,-8388608
10:51:41.008371,3014504,-8388608,-8388608,-8388608,1282503,-8388608,-8388608,-8388608
10:51:41.008371,3070547,-8388608,-8388608,-8388608,2196819,-8388608,-8388608,-8388608
10:51:41.023879,3002521,-8388608,-8388608,-8388608,1457023,-8388608,-8388608,-8388608
10:51:41.025512,2884418,-8388608,-8388608,-8388608,47008,-8388608,-8388608,-8388608
10:51:41.025512,2859310,-8388608,-8388608,-8388608,-59304,-8388608,-8388608,-8388608
10:51:41.025512,2941540,-8388608,-8388608,-8388608,1312112,-8388608,-8388608,-8388608
10:51:41.025512,3000858,-8388608,-8388608,-8388608,2256709,-8388608,-8388608,-8388608
10:51:41.042050,2931599,-8388608,-8388608,-8388608,1489628,-8388608,-8388608,-8388608
10:51:41.042050,2811244,-8388608,-8388608,-8388608,35593,-8388608,-8388608,-8388608
10:51:41.042050,2784118,-8388608,-8388608,-8388608,-93135,-8388608,-8388608,-8388608
10:51:41.042050,2867725,-8388608,-8388608,-8388608,1312657,-8388608,-8388608,-8388608
10:51:41.058144,2928901,-8388608,-8388608,-8388608,2299275,-8388608,-8388608,-8388608
10:51:41.061147,2859291,-8388608,-8388608,-8388608,1525037,-8388608,-8388608,-8388608
10:51:41.063582,2735465,-8388608,-8388608,-8388608,30195,-8388608,-8388608,-8388608
10:51:41.063582,2708774,-8388608,-8388608,-8388608,-113344,-8388608,-8388608,-8388608
10:51:41.074401,2794288,-8388608,-8388608,-8388608,1311810,-8388608,-8388608,-8388608
10:51:41.074746,2856746,-8388608,-8388608,-8388608,2317022,-8388608,-8388608,-8388608
10:51:41.074746,2786871,-8388608,-8388608,-8388608,1542016,-8388608,-8388608,-8388608
10:51:41.074746,2662474,-8388608,-8388608,-8388608,42962,-8388608,-8388608,-8388608
10:51:41.091337,2632557,-8388608,-8388608,-8388608,-117437,-8388608,-8388608,-8388608
10:51:41.091778,2715563,-8388608,-8388608,-8388608,1291528,-8388608,-8388608,-8388608
10:51:41.091778,2779311,-8388608,-8388608,-8388608,2309764,-8388608,-8388608,-8388608
10:51:41.091778,2712494,-8388608,-8388608,-8388608,1557833,-8388608,-8388608,-8388608
10:51:41.106914,2588607,-8388608,-8388608,-8388608,53501,-8388608,-8388608,-8388608
10:51:41.112168,2559804,-8388608,-8388608,-8388608,-111696,-8388608,-8388608,-8388608
10:51:41.114155,2642998,-8388608,-8388608,-8388608,1281053,-8388608,-8388608,-8388608
10:51:41.114155,2706833,-8388608,-8388608,-8388608,2304781,-8388608,-8388608,-8388608
10:51:41.121822,2641336,-8388608,-8388608,-8388608,1565644,-8388608,-8388608,-8388608
10:51:41.125883,2517168,-8388608,-8388608,-8388608,55771,-8388608,-8388608,-8388608
10:51:41.130581,2485681,-8388608,-8388608,-8388608,-139527,-8388608,-8388608,-8388608
10:51:41.134708,2567543,-8388608,-8388608,-8388608,1262516,-8388608,-8388608,-8388608
10:51:41.138091,2631530,-8388608,-8388608,-8388608,2304909,-8388608,-8388608,-8388608
10:51:41.141124,2566134,-8388608,-8388608,-8388608,1580975,-8388608,-8388608,-8388608
10:51:41.141124,2442233,-8388608,-8388608,-8388608,56131,-8388608,-8388608,-8388608
10:51:41.141124,2411050,-8388608,-8388608,-8388608,-142883,-8388608,-8388608,-8388608
10:51:41.141124,2492389,-8388608,-8388608,-8388608,1243968,-8388608,-8388608,-8388608
10:51:41.157900,2557739,-8388608,-8388608,-8388608,2300253,-8388608,-8388608,-8388608
10:51:41.162038,2494679,-8388608,-8388608,-8388608,1584536,-8388608,-8388608,-8388608
10:51:41.162038,2371889,-8388608,-8388608,-8388608,51681,-8388608,-8388608,-8388608
10:51:41.162038,2339313,-8388608,-8388608,-8388608,-164894,-8388608,-8388608,-8388608
10:51:41.173677,2418076,-8388608,-8388608,-8388608,1230196,-8388608,-8388608,-8388608
10:51:41.174679,2372868,-8388608,-8388608,-8388608,2309571,-8388608,-8388608,-8388608
10:51:41.174679,2508856,-8388608,-8388608,-8388608,1586304,-8388608,-8388608,-8388608
10:51:41.174679,5333268,-8388608,-8388608,-8388608,30368,-8388608,-8388608,-8388608
10:51:41.190034,7806511,-8388608,-8388608,-8388608,-179472,-8388608,-8388608,-8388608
10:51:41.191300,4882770,-8388608,-8388608,-8388608,1234499,-8388608,-8388608,-8388608
10:51:41.191300,-611942,-8388608,-8388608,-8388608,2323857,-8388608,-8388608,-8388608
10:51:41.191300,-943892,-8388608,-8388608,-8388608,1600918,-8388608,-8388608,-8388608
10:51:41.191300,4613094,-8388608,-8388608,-8388608,40436,-8388608,-8388608,-8388608
10:51:41.208331,7965800,-8388608,-8388608,-8388608,-186101,-8388608,-8388608,-8388608
10:51:41.208331,4439901,-8388608,-8388608,-8388608,1220094,-8388608,-8388608,-8388608
10:51:41.208331,-1783497,-8388608,-8388608,-8388608,2314665,-8388608,-8388608,-8388608
10:51:41.221912,-2151352,-8388608,-8388608,-8388608,1599805,-8388608,-8388608,-8388608
10:51:41.225553,3788557,-8388608,-8388608,-8388608,31401,-8388608,-8388608,-8388608
10:51:41.225553,7580226,-8388608,-8388608,-8388608,-205201,-8388608,-8388608,-8388608
10:51:41.225553,4107567,-8388608,-8388608,-8388608,1198472,-8388608,-8388608,-8388608
10:51:41.225553,-1929471,-8388608,-8388608,-8388608,2310634,-8388608,-8388608,-8388608
10:51:41.241261,-2411620,-8388608,-8388608,-8388608,1609264,-8388608,-8388608,-8388608
10:51:41.241261,2817844,-8388608,-8388608,-8388608,48474,-8388608,-8388608,-8388608
10:51:41.241261,6283326,-8388608,-8388608,-8388608,-210110,-8388608,-8388608,-8388608
10:51:41.241261,3993291,-8388608,-8388608,-8388608,1177607,-8388608,-8388608,-8388608
10:51:41.257655,-557104,-8388608,-8388608,-8388608,2294230,-8388608,-8388608,-8388608
10:51:41.257655,-2241379,-8388608,-8388608,-8388608,1621699,-8388608,-8388608,-8388608
10:51:41.257655,-2008592,-8388608,-8388608,-8388608,66854,-8388608,-8388608,-8388608
10:51:41.257655,-1669018,-8388608,-8388608,-8388608,-212002,-8388608,-8388608,-8388608
10:51:41.273328,-1577669,-8388608,-8388608,-8388608,1138331,-8388608,-8388608,-8388608
10:51:41.277632,-1515102,-8388608,-8388608,-8388608,2265349,-8388608,-8388608,-8388608
10:51:41.278278,-1562646,-8388608,-8388608,-8388608,1628713,-8388608,-8388608,-8388608
10:51:41.278278,-1672927,-8388608,-8388608,-8388608,73660,-8388608,-8388608,-8388608
10:51:41.278278,-1706779,-8388608,-8388608,-8388608,-217429,-8388608,-8388608,-8388608
10:51:41.291193,-1636674,-8388608,-8388608,-8388608,1124377,-8388608,-8388608,-8388608
10:51:41.291193,-1574972,-8388608,-8388608,-8388608,2265672,-8388608,-8388608,-8388608
10:51:41.291193,-1623291,-8388608,-8388608,-8388608,1650901,-8388608,-8388608,-8388608
10:51:41.306667,-1734691,-8388608,-8388608,-8388608,87279,-8388608,-8388608,-8388608
10:51:41.307929,-1770593,-8388608,-8388608,-8388608,-237527,-8388608,-8388608,-8388608
10:51:41.307929,-1701886,-8388608,-8388608,-8388608,1093558,-8388608,-8388608,-8388608
10:51:41.307929,-1638769,-8388608,-8388608,-8388608,2257809,-8388608,-8388608,-8388608
10:51:41.322029,-1686042,-8388608,-8388608,-8388608,1657842,-8388608,-8388608,-8388608
10:51:41.324821,-1797267,-8388608,-8388608,-8388608,102998,-8388608,-8388608,-8388608
10:51:41.329670,-1833539,-8388608,-8388608,-8388608,-229582,-8388608,-8388608,-8388608
10:51:41.330659,-1766415,-8388608,-8388608,-8388608,1081902,-8388608,-8388608,-8388608
10:51:41.330659,-1703599,-8388608,-8388608,-8388608,2243789,-8388608,-8388608,-8388608
10:51:41.341177,-1750419,-8388608,-8388608,-8388608,1661784,-8388608,-8388608,-8388608
10:51:41.345474,-1861842,-8388608,-8388608,-8388608,105180,-8388608,-8388608,-8388608
10:51:41.350091,-1899777,-8388608,-8388608,-8388608,-242884,-8388608,-8388608,-8388608
10:51:41.356117,-1832201,-8388608,-8388608,-8388608,1074523,-8388608,-8388608,-8388608
10:51:41.357720,-1772053,-8388608,-8388608,-8388608,2260004,-8388608,-8388608,-8388608
10:51:41.357720,-1676641,-8388608,-8388608,-8388608,1668406,-8388608,-8388608,-8388608
10:51:41.357720,-281588,-8388608,-8388608,-8388608,105493,-8388608,-8388608,-8388608
10:51:41.357720,1961799,-8388608,-8388608,-8388608,-240486,-8388608,-8388608,-8388608
10:51:41.373241,1292276,-8388608,-8388608,-8388608,1066790,-8388608,-8388608,-8388608
10:51:41.377278,-2760816,-8388608,-8388608,-8388608,2234940,-8388608,-8388608,-8388608
10:51:41.379342,-4170762,-8388608,-8388608,-8388608,1660060,-8388608,-8388608,-8388608
10:51:41.379342,349195,-8388608,-8388608,-8388608,104251,-8388608,-8388608,-8388608
10:51:41.389981,4948474,-8388608,-8388608,-8388608,-250454,-8388608,-8388608,-8388608
10:51:41.391037,3246629,-8388608,-8388608,-8388608,1047110,-8388608,-8388608,-8388608
10:51:41.391037,-2652904,-8388608,-8388608,-8388608,2242852,-8388608,-8388608,-8388608
10:51:41.391037,-4439887,-8388608,-8388608,-8388608,1675567,-8388608,-8388608,-8388608
10:51:41.391037,648240,-8388608,-8388608,-8388608,103236,-8388608,-8388608,-8388608
10:51:41.407865,5752403,-8388608,-8388608,-8388608,-271082,-8388608,-8388608,-8388608
10:51:41.407865,3367864,-8388608,-8388608,-8388608,1031286,-8388608,-8388608,-8388608
10:51:41.407865,-4318422,-8388608,-8388608,-8388608,2232424,-8388608,-8388608,-8388608
10:51:41.407865,-6325891,-8388608,-8388608,-8388608,1683145,-8388608,-8388608,-8388608
10:51:41.424913,1463971,-8388608,-8388608,-8388608,103861,-8388608,-8388608,-8388608
10:51:41.424913,7697484,-8388608,-8388608,-8388608,-277814,-8388608,-8388608,-8388608
10:51:41.424913,4486552,-8388608,-8388608,-8388608,1017977,-8388608,-8388608,-8388608
10:51:41.424913,-4639244,-8388608,-8388608,-8388608,2234971,-8388608,-8388608,-8388608
10:51:41.441095,-6623812,-8388608,-8388608,-8388608,1693942,-8388608,-8388608,-8388608
10:51:41.441491,2215264,-8388608,-8388608,-8388608,109224,-8388608,-8388608,-8388608
10:51:41.441491,8106547,-8388608,-8388608,-8388608,-273497,-8388608,-8388608,-8388608
10:51:41.441491,4758078,-8388608,-8388608,-8388608,1001841,-8388608,-8388608,-8388608
10:51:41.457774,-4922264,-8388608,-8388608,-8388608,2227311,-8388608,-8388608,-8388608
10:51:41.458349,-6909474,-8388608,-8388608,-8388608,1701323,-8388608,-8388608,-8388608
10:51:41.458349,2282974,-8388608,-8388608,-8388608,109969,-8388608,-8388608,-8388608
10:51:41.458349,8188008,-8388608,-8388608,-8388608,-288002,-8388608,-8388608,-8388608
10:51:41.473359,4854072,-8388608,-8388608,-8388608,991022,-8388608,-8388608,-8388608
10:51:41.474968,-4994879,-8388608,-8388608,-8388608,2231885,-8388608,-8388608,-8388608
10:51:41.474968,-7073810,-8388608,-8388608,-8388608,1723316,-8388608,-8388608,-8388608
10:51:41.474968,2071139,-8388608,-8388608,-8388608,133179,-8388608,-8388608,-8388608
10:51:41.490118,8151580,-8388608,-8388608,-8388608,-286345,-8388608,-8388608,-8388608
10:51:41.494214,4816148,-8388608,-8388608,-8388608,966837,-8388608,-8388608,-8388608
10:51:41.497988,-5118419,-8388608,-8388608,-8388608,2237825,-8388608,-8388608,-8388608
10:51:41.497988,-7258999,-8388608,-8388608,-8388608,1744775,-8388608,-8388608,-8388608
10:51:41.497988,1831275,-8388608,-8388608,-8388608,148944,-8388608,-8388608,-8388608
10:51:41.507902,8120663,-8388608,-8388608,-8388608,-292258,-8388608,-8388608,-8388608
10:51:41.507902,4888086,-8388608,-8388608,-8388608,950770,-8388608,-8388608,-8388608
10:51:41.507902,-5112173,-8388608,-8388608,-8388608,2229297,-8388608,-8388608,-8388608
10:51:41.523398,-7307938,-8388608,-8388608,-8388608,1754079,-8388608,-8388608,-8388608
10:51:41.524789,1850914,-8388608,-8388608,-8388608,155856,-8388608,-8388608,-8388608
10:51:41.530163,8154048,-8388608,-8388608,-8388608,-307853,-8388608,-8388608,-8388608
10:51:41.531388,4985743,-8388608,-8388608,-8388608,915709,-8388608,-8388608,-8388608
10:51:41.531388,-5044846,-8388608,-8388608,-8388608,2205755,-8388608,-8388608,-8388608
10:51:41.541901,-7289303,-8388608,-8388608,-8388608,1746226,-8388608,-8388608,-8388608
10:51:41.545330,1938308,-8388608,-8388608,-8388608,156302,-8388608,-8388608,-8388608
10:51:41.549388,8193523,-8388608,-8388608,-8388608,-316931,-8388608,-8388608,-8388608
10:51:41.553399,5137085,-8388608,-8388608,-8388608,897118,-8388608,-8388608,-8388608
10:51:41.556769,-4866303,-8388608,-8388608,-8388608,2186597,-8388608,-8388608,-8388608
10:51:41.557736,-7210174,-8388608,-8388608,-8388608,1742508,-8388608,-8388608,-8388608
10:51:41.557736,2071253,-8388608,-8388608,-8388608,151410,-8388608,-8388608,-8388608
10:51:41.557736,8235895,-8388608,-8388608,-8388608,-323588,-8388608,-8388608,-8388608
10:51:41.573268,5269253,-8388608,-8388608,-8388608,873922,-8388608,-8388608,-8388608
10:51:41.574740,-4824272,-8388608,-8388608,-8388608,2164335,-8388608,-8388608,-8388608
10:51:41.574740,-7298497,-8388608,-8388608,-8388608,1747135,-8388608,-8388608,-8388608
10:51:41.574740,2027218,-8388608,-8388608,-8388608,157466,-8388608,-8388608,-8388608
10:51:41.590036,8254679,-8388608,-8388608,-8388608,-332961,-8388608,-8388608,-8388608
10:51:41.593693,5336916,-8388608,-8388608,-8388608,857379,-8388608,-8388608,-8388608
10:51:41.596700,-4859902,-8388608,-8388608,-8388608,2160640,-8388608,-8388608,-8388608
10:51:41.597797,-7430273,-8388608,-8388608,-8388608,1750512,-8388608,-8388608,-8388608
10:51:41.597797,1863275,-8388608,-8388608,-8388608,173891,-8388608,-8388608,-8388608
10:51:41.607763,8235296,-8388608,-8388608,-8388608,-333627,-8388608,-8388608,-8388608
10:51:41.607763,5056494,-8388608,-8388608,-8388608,844004,-8388608,-8388608,-8388608
10:51:41.607763,-5528290,-8388608,-8388608,-8388608,2150952,-8388608,-8388608,-8388608
10:51:41.607763,-7635197,-8388608,-8388608,-8388608,1757603,-8388608,-8388608,-8388608
10:51:41.624715,2099378,-8388608,-8388608,-8388608,191111,-8388608,-8388608,-8388608
10:51:41.624715,8344665,-8388608,-8388608,-8388608,-318234,-8388608,-8388608,-8388608
10:51:41.624715,4791178,-8388608,-8388608,-8388608,839226,-8388608,-8388608,-8388608
10:51:41.624715,-6062236,-8388608,-8388608,-8388608,2138769,-8388608,-8388608,-8388608
10:51:41.642183,-7853021,-8388608,-8388608,-8388608,1767949,-8388608,-8388608,-8388608
10:51:41.646598,1871040,-8388608,-8388608,-8388608,223779,-8388608,-8388608,-8388608
10:51:41.649480,8336416,-8388608,-8388608,-8388608,-296187,-8388608,-8388608,-8388608
10:51:41.649480,4802839,-8388608,-8388608,-8388608,809474,-8388608,-8388608,-8388608
10:51:41.657641,-6063035,-8388608,-8388608,-8388608,2123500,-8388608,-8388608,-8388608
10:51:41.658198,-7948846,-8388608,-8388608,-8388608,1783036,-8388608,-8388608,-8388608
10:51:41.658198,1649506,-8388608,-8388608,-8388608,233507,-8388608,-8388608,-8388608
10:51:41.658198,8309481,-8388608,-8388608,-8388608,-301516,-8388608,-8388608,-8388608
10:51:41.674123,4736984,-8388608,-8388608,-8388608,813099,-8388608,-8388608,-8388608
10:51:41.674762,-6133405,-8388608,-8388608,-8388608,2113686,-8388608,-8388608,-8388608
10:51:41.674762,-7949015,-8388608,-8388608,-8388608,1763986,-8388608,-8388608,-8388608
10:51:41.674762,1684859,-8388608,-8388608,-8388608,236038,-8388608,-8388608,-8388608
10:51:41.689778,8326343,-8388608,-8388608,-8388608,-292311,-8388608,-8388608,-8388608
10:51:41.691328,4883561,-8388608,-8388608,-8388608,793674,-8388608,-8388608,-8388608
10:51:41.691328,-6081867,-8388608,-8388608,-8388608,2117956,-8388608,-8388608,-8388608
10:51:41.691328,-8017697,-8388608,-8388608,-8388608,1782194,-8388608,-8388608,-8388608
10:51:41.691328,1571966,-8388608,-8388608,-8388608,232939,-8388608,-8388608,-8388608
10:51:41.709555,8327162,-8388608,-8388608,-8388608,-339204,-8388608,-8388608,-8388608
10:51:41.713550,5056684,-8388608,-8388608,-8388608,761188,-8388608,-8388608,-8388608
10:51:41.713695,-5944347,-8388608,-8388608,-8388608,2100655,-8388608,-8388608,-8388608
10:51:41.713695,-8032759,-8388608,-8388608,-8388608,1783736,-8388608,-8388608,-8388608
10:51:41.723923,1535572,-8388608,-8388608,-8388608,249018,-8388608,-8388608,-8388608
10:51:41.729320,8329480,-8388608,-8388608,-8388608,-338785,-8388608,-8388608,-8388608
10:51:41.729320,5161740,-8388608,-8388608,-8388608,747600,-8388608,-8388608,-8388608
10:51:41.729320,-5865817,-8388608,-8388608,-8388608,2102489,-8388608,-8388608,-8388608
10:51:41.742521,-8066082,-8388608,-8388608,-8388608,1811471,-8388608,-8388608,-8388608
10:51:41.748130,1470083,-8388608,-8388608,-8388608,262926,-8388608,-8388608,-8388608
10:51:41.750676,8328804,-8388608,-8388608,-8388608,-344872,-8388608,-8388608,-8388608
10:51:41.754065,5254628,-8388608,-8388608,-8388608,724541,-8388608,-8388608,-8388608
10:51:41.757209,-5794376,-8388608,-8388608,-8388608,2091416,-8388608,-8388608,-8388608
10:51:41.757209,-8110642,-8388608,-8388608,-8388608,1817623,-8388608,-8388608,-8388608
10:51:41.757209,1344468,-8388608,-8388608,-8388608,275083,-8388608,-8388608,-8388608
10:51:41.757209,8314674,-8388608,-8388608,-8388608,-348501,-8388608,-8388608,-8388608
10:51:41.772950,5336859,-8388608,-8388608,-8388608,712806,-8388608,-8388608,-8388608
10:51:41.773940,-5714517,-8388608,-8388608,-8388608,2083686,-8388608,-8388608,-8388608
10:51:41.773940,-8149708,-8388608,-8388608,-8388608,1823098,-8388608,-8388608,-8388608
10:51:41.773940,1261259,-8388608,-8388608,-8388608,284612,-8388608,-8388608,-8388608
10:51:41.789589,8311787,-8388608,-8388608,-8388608,-348136,-8388608,-8388608,-8388608
10:51:41.790833,5386470,-8388608,-8388608,-8388608,702988,-8388608,-8388608,-8388608
10:51:41.790833,-5716739,-8388608,-8388608,-8388608,2070856,-8388608,-8388608,-8388608
10:51:41.790833,-8187397,-8388608,-8388608,-8388608,1831924,-8388608,-8388608,-8388608
10:51:41.790833,1191163,-8388608,-8388608,-8388608,300504,-8388608,-8388608,-8388608
10:51:41.809440,8309216,-8388608,-8388608,-8388608,-341334,-8388608,-8388608,-8388608
10:51:41.813105,5417020,-8388608,-8388608,-8388608,690803,-8388608,-8388608,-8388608
10:51:41.813105,-5716351,-8388608,-8388608,-8388608,2071626,-8388608,-8388608,-8388608
10:51:41.813105,-8214459,-8388608,-8388608,-8388608,1836136,-8388608,-8388608,-8388608
10:51:41.823979,1140104,-8388608,-8388608,-8388608,313757,-8388608,-8388608,-8388608
10:51:41.823979,8307784,-8388608,-8388608,-8388608,-342746,-8388608,-8388608,-8388608
10:51:41.823979,5458393,-8388608,-8388608,-8388608,676926,-8388608,-8388608,-8388608
10:51:41.823979,-5693019,-8388608,-8388608,-8388608,2056314,-8388608,-8388608,-8388608
10:51:41.840711,-8237126,-8388608,-8388608,-8388608,1845418,-8388608,-8388608,-8388608
10:51:41.840909,1087894,-8388608,-8388608,-8388608,322671,-8388608,-8388608,-8388608
10:51:41.840909,8304780,-8388608,-8388608,-8388608,-338924,-8388608,-8388608,-8388608
10:51:41.840909,5502269,-8388608,-8388608,-8388608,666707,-8388608,-8388608,-8388608
10:51:41.857489,-5666892,-8388608,-8388608,-8388608,2042583,-8388608,-8388608,-8388608
10:51:41.857996,-8270121,-8388608,-8388608,-8388608,1839241,-8388608,-8388608,-8388608
10:51:41.857996,999996,-8388608,-8388608,-8388608,333858,-8388608,-8388608,-8388608
10:51:41.857996,8297033,-8388608,-8388608,-8388608,-346254,-8388608,-8388608,-8388608
10:51:41.857996,5610359,-8388608,-8388608,-8388608,650636,-8388608,-8388608,-8388608
10:51:41.874390,-5551604,-8388608,-8388608,-8388608,2037638,-8388608,-8388608,-8388608
10:51:41.874390,-8289711,-8388608,-8388608,-8388608,1848402,-8388608,-8388608,-8388608
10:51:41.874390,924854,-8388608,-8388608,-8388608,346808,-8388608,-8388608,-8388608
10:51:41.874390,8288178,-8388608,-8388608,-8388608,-341226,-8388608,-8388608,-8388608
10:51:41.891155,5711771,-8388608,-8388608,-8388608,628918,-8388608,-8388608,-8388608
10:51:41.891155,-5426378,-8388608,-8388608,-8388608,2030967,-8388608,-8388608,-8388608
10:51:41.891155,-8293511,-8388608,-8388608,-8388608,1862939,-8388608,-8388608,-8388608
10:51:41.906469,875185,-8388608,-8388608,-8388608,347161,-8388608,-8388608,-8388608
10:51:41.908247,8279034,-8388608,-8388608,-8388608,-352844,-8388608,-8388608,-8388608
10:51:41.908247,5797263,-8388608,-8388608,-8388608,615768,-8388608,-8388608,-8388608
10:51:41.908247,-5323922,-8388608,-8388608,-8388608,2016592,-8388608,-8388608,-8388608
10:51:41.908247,-8319672,-8388608,-8388608,-8388608,1873810,-8388608,-8388608,-8388608
10:51:41.923987,773228,-8388608,-8388608,-8388608,372321,-8388608,-8388608,-8388608
10:51:41.927985,8264637,-8388608,-8388608,-8388608,-364336,-8388608,-8388608,-8388608
10:51:41.929944,5870579,-8388608,-8388608,-8388608,585913,-8388608,-8388608,-8388608
10:51:41.929944,-5235232,-8388608,-8388608,-8388608,2002522,-8388608,-8388608,-8388608
10:51:41.940375,-8346956,-8388608,-8388608,-8388608,1868987,-8388608,-8388608,-8388608
10:51:41.944583,660453,-8388608,-8388608,-8388608,374765,-8388608,-8388608,-8388608
10:51:41.945571,8252074,-7916603,-8388608,-8388608,-356814,-8388608,-8388608,-8388608
10:51:41.945571,5920555,-7869657,-8388608,-8388608,595598,-8388608,-8388608,-8388608
10:51:41.956304,-5180424,-8388608,-8388608,-8388608,2013036,-8388608,-8388608,-8388608
10:51:41.960569,-8376554,-8388608,-8388608,-8388608,1879440,-8388608,-8388608,-8388608
10:51:41.966248,535672,-8164992,-8388608,-8388608,390108,-8388608,-8388608,-8388608
10:51:41.969369,8241709,-5857562,-8388608,-8388608,-358136,-8388608,-8388608,-8388608
10:51:41.973883,5962403,-5733226,-8388608,-8388608,575608,-8388608,-8388608,-8388608
10:51:41.973883,-5143732,-8192566,-8388608,-8388608,2013589,-8388608,-8388608,-8388608
10:51:41.973883,-8388608,-8388608,-8388608,-8388608,1905437,-8388608,-8388608,-8388608
10:51:41.973883,364104,-7594634,-8388608,-8388608,406733,-8388608,-8388608,-8388608
10:51:41.989723,8219943,-4865490,-8388608,-8388608,-368092,-8388608,-8388608,-8388608
10:51:41.991221,6020058,-4753930,-8388608,-8388608,559409,-8388608,-8388608,-8388608
10:51:41.991221,-5079343,-7588010,-8388608,-8388608,2013874,-8388608,-8388608,-8388608
10:51:41.991221,-8388608,-8388608,-8388608,-8388608,1927956,-8388608,-8388608,-8388608
10:51:41.991221,200418,-7100185,-8388608,-8388608,418286,-8388608,-8388608,-8388608
10:51:42.007707,8194363,-4160103,-8388608,-8388608,-370518,-8388608,-8388608,-8388608
10:51:42.007707,6094191,-4045935,-8388608,-8388608,545981,-8388608,-8388608,-8388608
10:51:42.007707,-4981054,-7034368,-8388608,-8388608,2008937,-8388608,-8388608,-8388608
10:51:42.007707,-8388608,-8388608,-8388608,-8388608,1934136,-8388608,-8388608,-8388608
10:51:42.024066,91943,-6589579,-8388608,-8388608,428455,-8388608,-8388608,-8388608
10:51:42.028055,8176733,-3487496,-8388608,-8388608,-382222,-8388608,-8388608,-8388608
10:51:42.030837,6166652,-3365456,-8388608,-8388608,523417,-8388608,-8388608,-8388608
10:51:42.030837,-4887256,-6485358,-8388608,-8388608,2002726,-8388608,-8388608,-8388608
10:51:42.040940,-8388608,-8225113,-8388608,-8388608,1941686,-8388608,-8388608,-8388608
10:51:42.040940,-24308,-6168251,-8388608,-8388608,437148,-8388608,-8388608,-8388608
10:51:42.040940,8157343,-2946306,-8388608,-8388608,-375342,-8388608,-8388608,-8388608
10:51:42.040940,6245856,-2810640,-8388608,-8388608,514739,-8388608,-8388608,-8388608
10:51:42.056159,-4782193,-6257685,-8388608,-8388608,1979998,-8388608,-8388608,-8388608
10:51:42.057696,-8388608,-8301267,-8388608,-8388608,1947328,-8388608,-8388608,-8388608
10:51:42.057696,-113792,-5865509,-8388608,-8388608,449228,-8388608,-8388608,-8388608
10:51:42.057696,8142244,-1965528,-8388608,-8388608,-390052,-8388608,-8388608,-8388608
10:51:42.072761,6309686,-1815682,-8388608,-8388608,493688,-8388608,-8388608,-8388608
10:51:42.074340,-4685464,-5966450,-8388608,-8388608,1982862,-8388608,-8388608,-8388608
10:51:42.074340,-8388608,-8373114,-8388608,-8388608,1958781,-8388608,-8388608,-8388608
10:51:42.074340,-185633,-5245259,-8388608,-8388608,457846,-8388608,-8388608,-8388608
10:51:42.074340,8135335,-309662,-8388608,-8388608,-402647,-8388608,-8388608,-8388608
10:51:42.090910,6396809,-331221,-8388608,-8388608,476076,-8388608,-8388608,-8388608
10:51:42.090910,-4566742,-5647834,-8388608,-8388608,1982963,-8388608,-8388608,-8388608
10:51:42.090910,-8388608,-8388608,-8388608,-8388608,1968710,-8388608,-8388608,-8388608
10:51:42.090910,-260419,-4989247,-8388608,-8388608,465874,-8388608,-8388608,-8388608
10:51:42.107633,8122853,423098,-8388608,-8388608,-400893,-8388608,-8388608,-8388608
10:51:42.107633,6473903,365839,-8388608,-8388608,464348,-8388608,-8388608,-8388608
10:51:42.107633,-4448409,-5340662,-8388608,-8388608,1972856,-8388608,-8388608,-8388608
10:51:42.107633,-8388608,-8388608,-8388608,-8388608,1977489,-8388608,-8388608,-8388608
10:51:42.124493,-348814,-4847176,-8388608,-8388608,477433,-8388608,-8388608,-8388608
10:51:42.124493,8103997,753650,-8388608,-8388608,-408794,-8388608,-8388608,-8388608
10:51:42.124493,6568898,741546,-8388608,-8388608,438749,-8388608,-8388608,-8388608
10:51:42.124493,-4296219,-5112476,-8388608,-8388608,1960288,-8388608,-8388608,-8388608
10:51:42.141765,-8388608,-8388608,-8388608,-8388608,1985864,-8388608,-8388608,-8388608
10:51:42.144766,-407977,-4719021,-8388608,-8388608,489946,-8388608,-8388608,-8388608
10:51:42.146479,8092678,1036413,-8388608,-8388608,-408378,-8388608,-8388608,-8388608
10:51:42.146479,6664101,1070491,-8388608,-8388608,424310,-8388608,-8388608,-8388608
10:51:42.156937,-4143553,-4919567,-8388608,-8388608,1948193,-8388608,-8388608,-8388608
10:51:42.160672,-8388608,-8346925,-8388608,-8388608,1994386,-8388608,-8388608,-8388608
10:51:42.162908,-500462,-4628024,-8388608,-8388608,503414,-8388608,-8388608,-8388608
10:51:42.162908,8071823,1257768,-8388608,-8388608,-410194,-8388608,-8388608,-8388608
10:51:42.162908,6722510,1336512,-8388608,-8388608,415956,-8388608,-8388608,-8388608
10:51:42.176525,-4046861,-4738426,-8388608,-8388608,1943315,-8388608,-8388608,-8388608
10:51:42.181663,-8388608,-8284934,-8388608,-8388608,1996039,-8388608,-8388608,-8388608
10:51:42.184290,-621591,-4549155,-8388608,-8388608,520284,-8388608,-8388608,-8388608
10:51:42.188279,8043256,1418440,-8388608,-8388608,-400711,-8388608,-8388608,-8388608
10:51:42.190378,6766973,1539638,-8388608,-8388608,410673,-8388608,-8388608,-8388608
10:51:42.190378,-3968012,-4594098,-8388608,-8388608,1940973,-8388608,-8388608,-8388608
10:51:42.190378,-8388608,-8238461,-8388608,-8388608,2015640,-8388608,-8388608,-8388608
10:51:42.205003,-755543,-4485027,-8388608,-8388608,547236,-8388608,-8388608,-8388608
10:51:42.207571,8010868,1566829,-8388608,-8388608,-400301,-8388608,-8388608,-8388608
10:51:42.207571,6813063,1730494,-8388608,-8388608,393786,-8388608,-8388608,-8388608
10:51:42.207571,-3890334,-4450014,-8388608,-8388608,1940273,-8388608,-8388608,-8388608
10:51:42.207571,-8388608,-8189565,-8388608,-8388608,2028559,-8388608,-8388608,-8388608
10:51:42.224248,-905729,-4451250,-8388608,-8388608,562993,-8388608,-8388608,-8388608
10:51:42.224248,7973872,1662518,-8388608,-8388608,-397869,-8388608,-8388608,-8388608
10:51:42.224248,6860153,1867003,-8388608,-8388608,386780,-8388608,-8388608,-8388608
10:51:42.224248,-3806374,-4357912,-8388608,-8388608,1930014,-8388608,-8388608,-8388608
10:51:42.240468,-8388608,-8185912,-8388608,-8388608,2039900,-8388608,-8388608,-8388608
10:51:42.243464,-1141820,-4489771,-8388608,-8388608,568862,-8388608,-8388608,-8388608
10:51:42.246521,7890103,1700954,-8388608,-8388608,-404914,-8388608,-8388608,-8388608
10:51:42.246521,6952138,1984646,-8388608,-8388608,372815,-8388608,-8388608,-8388608
10:51:42.256074,-3549535,-4233011,-8388608,-8388608,1930433,-8388608,-8388608,-8388608
10:51:42.257729,-8388608,-8144277,-8388608,-8388608,2050824,-8388608,-8388608,-8388608
10:51:42.257729,-1285972,-4501258,-8388608,-8388608,588525,-8388608,-8388608,-8388608
10:51:42.257729,7849834,1716289,-8388608,-8388608,-399889,-8388608,-8388608,-8388608
10:51:42.272722,7017788,2070405,-8388608,-8388608,357754,-8388608,-8388608,-8388608
10:51:42.274140,-3417552,-4133871,-8388608,-8388608,1912289,-8388608,-8388608,-8388608
10:51:42.274140,-8388608,-8117636,-8388608,-8388608,2053339,-8388608,-8388608,-8388608
10:51:42.274140,-1385721,-4528604,-8388608,-8388608,600260,-8388608,-8388608,-8388608
10:51:42.289240,7818448,1710703,-8388608,-8388608,-399718,-8388608,-8388608,-8388608
10:51:42.290705,7071384,2125238,-8388608,-8388608,348399,-8388608,-8388608,-8388608
10:51:42.290705,-3298476,-4028529,-8388608,-8388608,1898663,-8388608,-8388608,-8388608
10:51:42.290705,-8388608,-8024872,-8388608,-8388608,2057727,-8388608,-8388608,-8388608
10:51:42.290705,-1490153,-4538928,-8388608,-8388608,620144,-8388608,-8388608,-8388608
10:51:42.307236,7785484,1639769,-8388608,-8388608,-390963,-8388608,-8388608,-8388608
10:51:42.307236,7129762,2129232,-8388608,-8388608,327647,-8388608,-8388608,-8388608
10:51:42.307236,-3178310,-3872044,-8388608,-8388608,1876060,-8388608,-8388608,-8388608
10:51:42.307236,-8388608,-7855536,-8388608,-8388608,2053941,-8388608,-8388608,-8388608
10:51:42.323650,-1592650,-4500808,-8388608,-8388608,628862,-8388608,-8388608,-8388608
10:51:42.324038,7754892,1597205,-8388608,-8388608,-387976,-8388608,-8388608,-8388608
10:51:42.324038,7214108,2142166,-8388608,-8388608,315156,-8388608,-8388608,-8388608
10:51:42.324038,-2963750,-3804358,-8388608,-8388608,1876841,-8388608,-8388608,-8388608
10:51:42.340374,-8388608,-7851786,-8388608,-8388608,2074059,-8388608,-8388608,-8388608
10:51:42.340787,-1682360,-4566817,-8388608,-8388608,646696,-8388608,-8388608,-8388608
10:51:42.340787,7717966,1556673,-8388608,-8388608,-394971,-8388608,-8388608,-8388608
10:51:42.340787,7252726,2175037,-8388608,-8388608,293004,-8388608,-8388608,-8388608
10:51:42.356223,-2881498,-3774366,-8388608,-8388608,1862038,-8388608,-8388608,-8388608
10:51:42.360308,-8388608,-7899312,-8388608,-8388608,2071479,-8388608,-8388608,-8388608
10:51:42.363848,-1801534,-4667178,-8388608,-8388608,656083,-8388608,-8388608,-8388608
10:51:42.363848,7681428,1506709,-8388608,-8388608,-388037,-8388608,-8388608,-8388608
10:51:42.372578,7291479,2189324,-8388608,-8388608,296958,-8388608,-8388608,-8388608
10:51:42.373955,-2797245,-3789519,-8388608,-8388608,1853364,-8388608,-8388608,-8388608
10:51:42.379531,-8388608,-8009512,-8388608,-8388608,2081155,-8388608,-8388608,-8388608
10:51:42.381084,-1915982,-4791206,-8388608,-8388608,672202,-8388608,-8388608,-8388608
10:51:42.381084,7643166,1465568,-8388608,-8388608,-393221,-8388608,-8388608,-8388608
10:51:42.392065,7331646,2221287,-8388608,-8388608,281787,-8388608,-8388608,-8388608
10:51:42.396642,-2707435,-3780159,-8388608,-8388608,1847570,-8388608,-8388608,-8388608
10:51:42.399593,-8388608,-8095849,-8388608,-8388608,2090605,-8388608,-8388608,-8388608
10:51:42.403663,-2041106,-4928496,-8388608,-8388608,689246,-8388608,-8388608,-8388608
10:51:42.406864,7603676,1390586,-8388608,-8388608,-386004,-8388608,-8388608,-8388608
10:51:42.406864,7377654,2223971,-8388608,-8388608,266483,-8388608,-8388608,-8388608
10:51:42.406864,-2607596,-3766492,-8388608,-8388608,1838926,-8388608,-8388608,-8388608
10:51:42.406864,-8388608,-8143421,-8388608,-8388608,2099613,-8388608,-8388608,-8388608
10:51:42.423930,-2171900,-5049359,-8388608,-8388608,700627,-8388608,-8388608,-8388608
10:51:42.423930,7559114,1303052,-8388608,-8388608,-385650,-8388608,-8388608,-8388608
10:51:42.423930,7424791,2230788,-8388608,-8388608,258223,-8388608,-8388608,-8388608
10:51:42.423930,-2495448,-3714974,-8388608,-8388608,1829377,-8388608,-8388608,-8388608
10:51:42.439155,-8388608,-8147519,-8388608,-8388608,2100611,-8388608,-8388608,-8388608
10:51:42.440539,-2277063,-5114945,-8388608,-8388608,718937,-8388608,-8388608,-8388608
10:51:42.440539,7522058,1271288,-8388608,-8388608,-385094,-8388608,-8388608,-8388608
10:51:42.440539,7463553,2268054,-8388608,-8388608,241106,-8388608,-8388608,-8388608
10:51:42.440539,-2400401,-3674081,-8388608,-8388608,1815013,-8388608,-8388608,-8388608
10:51:42.460025,-8388608,-8170062,-8388608,-8388608,2108643,-8388608,-8388608,-8388608
10:51:42.462656,-2376020,-5186426,-8388608,-8388608,738180,-8388608,-8388608,-8388608
10:51:42.462656,7485478,1255488,-8388608,-8388608,-381127,-8388608,-8388608,-8388608
10:51:42.472419,7506517,2322098,-8388608,-8388608,226496,-8388608,-8388608,-8388608
10:51:42.473342,-2287794,-3628158,-8388608,-8388608,1802643,-8388608,-8388608,-8388608
10:51:42.473342,-8388608,-8192701,-8388608,-8388608,2107312,-8388608,-8388608,-8388608
10:51:42.473342,-2476297,-5265106,-8388608,-8388608,753896,-8388608,-8388608,-8388608
10:51:42.473342,7446081,1221019,-8388608,-8388608,-370339,-8388608,-8388608,-8388608
10:51:42.490105,7550475,2367928,-8388608,-8388608,221154,-8388608,-8388608,-8388608
10:51:42.490105,-2168643,-3573406,-8388608,-8388608,1789767,-8388608,-8388608,-8388608
10:51:42.490105,-8388608,-8202098,-8388608,-8388608,2117245,-8388608,-8388608,-8388608
10:51:42.490105,-2563038,-5338642,-8388608,-8388608,771217,-8388608,-8388608,-8388608
10:51:42.507303,7411909,1187999,-8388608,-8388608,-371976,-8388608,-8388608,-8388608
10:51:42.507303,7590227,2405579,-8388608,-8388608,204235,-8388608,-8388608,-8388608
10:51:42.507303,-2055524,-3515767,-8388608,-8388608,1780292,-8388608,-8388608,-8388608
10:51:42.507303,-8388608,-8199673,-8388608,-8388608,2123769,-8388608,-8388608,-8388608
10:51:42.522932,-2656622,-5396801,-8388608,-8388608,782218,-8388608,-8388608,-8388608
10:51:42.524095,7373809,1161731,-8388608,-8388608,-373340,-8388608,-8388608,-8388608
10:51:42.524095,7636080,2459062,-8388608,-8388608,190852,-8388608,-8388608,-8388608
10:51:42.524095,-1925517,-3443868,-8388608,-8388608,1776976,-8388608,-8388608,-8388608
10:51:42.540672,-8388608,-8197995,-8388608,-8388608,2127716,-8388608,-8388608,-8388608
10:51:42.540672,-2738232,-5448447,-8388608,-8388608,782910,-8388608,-8388608,-8388608
10:51:42.540672,7337877,1137529,-8388608,-8388608,-370301,-8388608,-8388608,-8388608
10:51:42.540672,7678192,2512518,-8388608,-8388608,181566,-8388608,-8388608,-8388608
10:51:42.555789,-1795520,-3347259,-8388608,-8388608,1756584,-8388608,-8388608,-8388608
10:51:42.557269,-8388608,-8160237,-8388608,-8388608,2127879,-8388608,-8388608,-8388608
10:51:42.557269,-2826020,-5496622,-8388608,-8388608,811560,-8388608,-8388608,-8388608
10:51:42.557269,7300981,1085730,-8388608,-8388608,-356944,-8388608,-8388608,-8388608
10:51:42.557269,7722695,2537649,-8388608,-8388608,169239,-8388608,-8388608,-8388608
10:51:42.575502,-1661776,-3219407,-8388608,-8388608,1743804,-8388608,-8388608,-8388608
10:51:42.579198,-8388608,-8057303,-8388608,-8388608,2135255,-8388608,-8388608,-8388608
10:51:42.583625,-2890496,-5499693,-8388608,-8388608,827514,-8388608,-8388608,-8388608
10:51:42.584078,7276688,1004810,-8388608,-8388608,-353152,-8388608,-8388608,-8388608
10:51:42.591596,7764124,2526139,-8388608,-8388608,161299,-8388608,-8388608,-8388608
10:51:42.595684,-1542820,-3115956,-8388608,-8388608,1732504,-8388608,-8388608,-8388608
10:51:42.599263,-8388608,-7988781,-8388608,-8388608,2134908,-8388608,-8388608,-8388608
10:51:42.603675,-2986912,-5506106,-8388608,-8388608,845329,-8388608,-8388608,-8388608
10:51:42.606746,7233256,976712,-8388608,-8388608,-347472,-8388608,-8388608,-8388608
10:51:42.606746,7798074,2568998,-8388608,-8388608,145941,-8388608,-8388608,-8388608
10:51:42.606746,-1444796,-2966507,-8388608,-8388608,1725442,-8388608,-8388608,-8388608
10:51:42.606746,-8388608,-7847636,-8388608,-8388608,2139928,-8388608,-8388608,-8388608
10:51:42.622796,-3098684,-5453221,-8388608,-8388608,847982,-8388608,-8388608,-8388608
10:51:42.622796,7188846,1018079,-8388608,-8388608,-345986,-8388608,-8388608,-8388608
10:51:42.622796,7841271,2651208,-8388608,-8388608,130838,-8388608,-8388608,-8388608
10:51:42.622796,-1305569,-2907456,-8388608,-8388608,1703708,-8388608,-8388608,-8388608
10:51:42.639433,-8388608,-7883218,-8388608,-8388608,2153626,-8388608,-8388608,-8388608
10:51:42.639433,-3187630,-5515965,-8388608,-8388608,879219,-8388608,-8388608,-8388608
10:51:42.639433,7148234,1038734,-8388608,-8388608,-341192,-8388608,-8388608,-8388608
10:51:42.639433,7874349,2746806,-8388608,-8388608,121659,-8388608,-8388608,-8388608
10:51:42.655603,-1191039,-2881054,-8388608,-8388608,1697283,-8388608,-8388608,-8388608
10:51:42.657168,-8388608,-7976262,-8388608,-8388608,2151197,-8388608,-8388608,-8388608
10:51:42.657168,-3288412,-5619523,-8388608,-8388608,889555,-8388608,-8388608,-8388608
10:51:42.657168,7101016,1046411,-8388608,-8388608,-335181,-8388608,-8388608,-8388608
10:51:42.657168,7906034,2836963,-8388608,-8388608,113613,-8388608,-8388608,-8388608
10:51:42.674356,-1082657,-2767143,-8388608,-8388608,1680083,-8388608,-8388608,-8388608
10:51:42.678367,-8388608,-7936482,-8388608,-8388608,2155671,-8388608,-8388608,-8388608
10:51:42.679667,-3400669,-5667576,-8388608,-8388608,906383,-8388608,-8388608,-8388608
10:51:42.679667,7044743,973346,-8388608,-8388608,-341761,-8388608,-8388608,-8388608
10:51:42.690103,7933188,2844926,-8388608,-8388608,93885,-8388608,-8388608,-8388608
10:51:42.690103,-983667,-2592432,-8388608,-8388608,1658794,-8388608,-8388608,-8388608
10:51:42.690103,-8388608,-7727601,-8388608,-8388608,2154854,-8388608,-8388608,-8388608
10:51:42.690103,-3525134,-5571133,-8388608,-8388608,924038,-8388608,-8388608,-8388608
10:51:42.706776,6984074,982307,-8388608,-8388608,-325391,-8388608,-8388608,-8388608
10:51:42.707480,7965992,2870907,-8388608,-8388608,86612,-8388608,-8388608,-8388608
10:51:42.707480,-862732,-2613405,-8388608,-8388608,1660064,-8388608,-8388608,-8388608
10:51:42.707480,-8388608,-7866996,-8388608,-8388608,2180662,-8388608,-8388608,-8388608
10:51:42.724076,-3627414,-5752655,-8388608,-8388608,946186,-8388608,-8388608,-8388608
10:51:42.724076,6932038,885799,-8388608,-8388608,-321509,-8388608,-8388608,-8388608
10:51:42.724076,7990151,2861179,-8388608,-8388608,81604,-8388608,-8388608,-8388608
10:51:42.724076,-775857,-2625323,-8388608,-8388608,1652403,-8388608,-8388608,-8388608
10:51:42.739004,-8388608,-7945009,-8388608,-8388608,2176922,-8388608,-8388608,-8388608
10:51:42.740635,-3737319,-5889852,-8388608,-8388608,956975,-8388608,-8388608,-8388608
10:51:42.740635,6875012,796193,-8388608,-8388608,-317141,-8388608,-8388608,-8388608
10:51:42.740635,8016064,2853344,-8388608,-8388608,64853,-8388608,-8388608,-8388608
10:51:42.755648,-672832,-2619404,-8388608,-8388608,1640581,-8388608,-8388608,-8388608
10:51:42.757442,-8388608,-7996292,-8388608,-8388608,2188335,-8388608,-8388608,-8388608
10:51:42.757442,-3858750,-6015508,-8388608,-8388608,973763,-8388608,-8388608,-8388608
10:51:42.757442,6809274,696145,-8388608,-8388608,-302148,-8388608,-8388608,-8388608
10:51:42.757442,8041968,2838924,-8388608,-8388608,65364,-8388608,-8388608,-8388608
10:51:42.773839,-568042,-2606074,-8388608,-8388608,1624464,-8388608,-8388608,-8388608
10:51:42.779778,-8388608,-8023103,-8388608,-8388608,2187093,-8388608,-8388608,-8388608
10:51:42.780551,-3975937,-6125295,-8388608,-8388608,993084,-8388608,-8388608,-8388608
10:51:42.780551,6744744,608361,-8388608,-8388608,-298490,-8388608,-8388608,-8388608
10:51:42.790917,8067257,2839263,-8388608,-8388608,58979,-8388608,-8388608,-8388608
10:51:42.794912,-463770,-2558203,-8388608,-8388608,1621346,-8388608,-8388608,-8388608
10:51:42.800224,-8388608,-8015707,-8388608,-8388608,2195198,-8388608,-8388608,-8388608
10:51:42.804224,-4093580,-6215799,-8388608,-8388608,1006878,-8388608,-8388608,-8388608
10:51:42.806449,6675770,483154,-8388608,-8388608,-303436,-8388608,-8388608,-8388608
10:51:42.806449,8090787,2786251,-8388608,-8388608,39836,-8388608,-8388608,-8388608
10:51:42.806449,-358274,-2533462,-8388608,-8388608,1610396,-8388608,-8388608,-8388608
10:51:42.806449,-8388608,-8021841,-8388608,-8388608,2205135,-8388608,-8388608,-8388608
10:51:42.823192,-4182312,-6278874,-8388608,-8388608,1022908,-8388608,-8388608,-8388608
10:51:42.823192,6625257,442811,-8388608,-8388608,-295293,-8388608,-8388608,-8388608
10:51:42.823192,8111086,2837194,-8388608,-8388608,32303,-8388608,-8388608,-8388608
10:51:42.823192,-274585,-2267959,-8388608,-8388608,1588243,-8388608,-8388608,-8388608
10:51:42.838882,-8388608,-7717901,-8388608,-8388608,2196830,-8388608,-8388608,-8388608
10:51:42.840261,-4295693,-6162040,-8388608,-8388608,1045556,-8388608,-8388608,-8388608
10:51:42.840261,6557552,267504,-8388608,-8388608,-276561,-8388608,-8388608,-8388608
10:51:42.840261,8135105,2666866,-8388608,-8388608,27580,-8388608,-8388608,-8388608
10:51:42.840261,-158061,-2087015,-8388608,-8388608,1571413,-8388608,-8388608,-8388608
10:51:42.856698,-8388608,-7325078,-8388608,-8388608,2200854,-8388608,-8388608,-8388608
10:51:42.856698,-4395261,-5927843,-8388608,-8388608,1062735,-8388608,-8388608,-8388608
10:51:42.856698,6493776,204033,-8388608,-8388608,-277145,-8388608,-8388608,-8388608
10:51:42.856698,8163206,2583301,-8388608,-8388608,11789,-8388608,-8388608,-8388608
10:51:42.873725,-12216,-1880465,-8388608,-8388608,1556236,-8388608,-8388608,-8388608
10:51:42.873725,-8388608,-6917861,-8388608,-8388608,2203448,-8388608,-8388608,-8388608
10:51:42.873725,-4518000,-5579267,-8388608,-8388608,1074818,-8388608,-8388608,-8388608
10:51:42.873725,6404788,437939,-8388608,-8388608,-274566,-8388608,-8388608,-8388608
10:51:42.890761,8185325,2763711,-8388608,-8388608,-2372,-8388608,-8388608,-8388608
10:51:42.895115,123761,-1870119,-8388608,-8388608,1546694,-8388608,-8388608,-8388608
10:51:42.895504,-8388608,-7130711,-8388608,-8388608,2206192,-8388608,-8388608,-8388608
10:51:42.895504,-4575041,-5765182,-8388608,-8388608,1097842,-8388608,-8388608,-8388608
10:51:42.906506,6361795,481654,-8388608,-8388608,-261468,-8388608,-8388608,-8388608
10:51:42.906506,8210225,2886391,-8388608,-8388608,-5785,-8388608,-8388608,-8388608
10:51:42.906506,254990,-1937395,-8388608,-8388608,1536710,-8388608,-8388608,-8388608
10:51:42.906506,-8373739,-7422152,-8388608,-8388608,2217791,-8388608,-8388608,-8388608
10:51:42.923070,-4663791,-6059000,-8388608,-8388608,1111950,-8388608,-8388608,-8388608
10:51:42.923514,6298244,384764,-8388608,-8388608,-256924,-8388608,-8388608,-8388608
10:51:42.923514,8232751,2909931,-8388608,-8388608,-22771,-8388608,-8388608,-8388608
10:51:42.923514,375983,-1983326,-8388608,-8388608,1521177,-8388608,-8388608,-8388608
10:51:42.938667,-8347979,-7628349,-8388608,-8388608,2217892,-8388608,-8388608,-8388608
10:51:42.940109,-4746319,-6311474,-8388608,-8388608,1125711,-8388608,-8388608,-8388608
10:51:42.940109,6240734,245149,-8388608,-8388608,-251768,-8388608,-8388608,-8388608
10:51:42.940109,8251444,2930756,-8388608,-8388608,-23504,-8388608,-8388608,-8388608
10:51:42.955309,478955,-1778691,-8388608,-8388608,1513741,-8388608,-8388608,-8388608
10:51:42.956898,-8324341,-7362087,-8388608,-8388608,2227061,-8388608,-8388608,-8388608
10:51:42.956898,-4837450,-6214276,-8388608,-8388608,1151378,-8388608,-8388608,-8388608
10:51:42.956898,6172689,116552,-8388608,-8388608,-241282,-8388608,-8388608,-8388608
10:51:42.956898,8273498,2805354,-8388608,-8388608,-42496,-8388608,-8388608,-8388608
10:51:42.973912,629624,-1629282,-8388608,-8388608,1494270,-8388608,-8388608,-8388608
10:51:42.973912,-8276711,-7045382,-8388608,-8388608,2229249,-8388608,-8388608,-8388608
10:51:42.973912,-4898946,-6080971,-8388608,-8388608,1165081,-8388608,-8388608,-8388608
10:51:42.973912,6116073,-144972,-8388608,-8388608,-225511,-8388608,-8388608,-8388608
10:51:42.991629,8294159,2487454,-8388608,-8388608,-49737,-8388608,-8388608,-8388608
10:51:42.994760,790536,-1533271,-8388608,-8388608,1472858,-8388608,-8388608,-8388608
10:51:42.998685,-8220646,-6657284,-8388608,-8388608,2228054,-8388608,-8388608,-8388608
10:51:43.001768,-4990929,-5739173,-8388608,-8388608,1181383,-8388608,-8388608,-8388608
10:51:43.006386,6022520,45910,-8388608,-8388608,-225969,-8388608,-8388608,-8388608
10:51:43.010342,8304098,2581219,-8388608,-8388608,-51957,-8388608,-8388608,-8388608
10:51:43.015910,900937,-1655336,-8388608,-8388608,1468627,-8388608,-8388608,-8388608
10:51:43.018472,-8176197,-6964422,-8388608,-8388608,2227313,-8388608,-8388608,-8388608
10:51:43.022992,-5066421,-5946166,-8388608,-8388608,1204804,-8388608,-8388608,-8388608
10:51:43.022992,5953163,115901,-8388608,-8388608,-218928,-8388608,-8388608,-8388608
10:51:43.022992,8316606,2749831,-8388608,-8388608,-70114,-8388608,-8388608,-8388608
10:51:43.022992,975473,-1686602,-8388608,-8388608,1455416,-8388608,-8388608,-8388608
10:51:43.039598,-8160891,-7209531,-8388608,-8388608,2238528,-8388608,-8388608,-8388608
10:51:43.039598,-5168715,-6188649,-8388608,-8388608,1213261,-8388608,-8388608,-8388608
10:51:43.039598,5872575,65761,-8388608,-8388608,-218770,-8388608,-8388608,-8388608
10:51:43.039598,8331770,2830516,-8388608,-8388608,-71652,-8388608,-8388608,-8388608
10:51:43.056198,1074864,-1656207,-8388608,-8388608,1449559,-8388608,-8388608,-8388608
10:51:43.056198,-8134067,-7322752,-8388608,-8388608,2243432,-8388608,-8388608,-8388608
10:51:43.056198,-5255200,-6320020,-8388608,-8388608,1230970,-8388608,-8388608,-8388608
10:51:43.056198,5803551,131804,-8388608,-8388608,-214851,-8388608,-8388608,-8388608
10:51:43.071270,8349444,3050896,-8388608,-8388608,-94892,-8388608,-8388608,-8388608
10:51:43.072816,1182420,-1506799,-8388608,-8388608,1431248,-8388608,-8388608,-8388608
10:51:43.072816,-8105105,-7337952,-8388608,-8388608,2247174,-8388608,-8388608,-8388608
10:51:43.072816,-5334105,-6404917,-8388608,-8388608,1242173,-8388608,-8388608,-8388608
10:51:43.072816,5738315,151503,-8388608,-8388608,-207254,-8388608,-8388608,-8388608
10:51:43.089879,8367377,3231413,-8388608,-8388608,-96779,-8388608,-8388608,-8388608
10:51:43.089879,1298988,-1288057,-8388608,-8388608,1422108,-8388608,-8388608,-8388608
10:51:43.089879,-8072397,-7283703,-8388608,-8388608,2259287,-8388608,-8388608,-8388608
10:51:43.089879,-5430752,-6458932,-8388608,-8388608,1257118,-8388608,-8388608,-8388608
10:51:43.106297,5651883,166923,-8388608,-8388608,-201267,-8388608,-8388608,-8388608
10:51:43.110648,8380789,3347966,-8388608,-8388608,-112276,-8388608,-8388608,-8388608
10:51:43.111348,1396042,-1206219,-8388608,-8388608,1408543,-8388608,-8388608,-8388608
10:51:43.111348,-8045280,-7325692,-8388608,-8388608,2253943,-8388608,-8388608,-8388608
10:51:43.122955,-5525843,-6544620,-8388608,-8388608,1277619,-8388608,-8388608,-8388608
10:51:43.122955,5567664,192564,-8388608,-8388608,-187700,-8388608,-8388608,-8388608
10:51:43.122955,8388607,3446483,-8388608,-8388608,-113054,-8388608,-8388608,-8388608
10:51:43.122955,1481513,-1203691,-8388608,-8388608,1396844,-8388608,-8388608,-8388608
10:51:43.138470,-8025029,-7467411,-8388608,-8388608,2262211,-8388608,-8388608,-8388608
10:51:43.139974,-5636902,-6722230,-8388608,-8388608,1297078,-8388608,-8388608,-8388608
10:51:43.139974,5467359,89094,-8388608,-8388608,-178696,-8388608,-8388608,-8388608
10:51:43.139974,8388607,3453659,-8388608,-8388608,-121125,-8388608,-8388608,-8388608
10:51:43.155009,1571229,-1179339,-8388608,-8388608,1387276,-8388608,-8388608,-8388608
10:51:43.156082,-7999860,-7487406,-8388608,-8388608,2261122,-8388608,-8388608,-8388608
10:51:43.156082,-5733421,-6804071,-8388608,-8388608,1314853,-8388608,-8388608,-8388608
10:51:43.156082,5381151,34643,-8388608,-8388608,-169918,-8388608,-8388608,-8388608
10:51:43.156082,8388607,3488602,-8388608,-8388608,-130252,-8388608,-8388608,-8388608
10:51:43.172952,1657361,-1108027,-8388608,-8388608,1378489,-8388608,-8388608,-8388608
10:51:43.172952,-7976509,-7466610,-8388608,-8388608,2267931,-8388608,-8388608,-8388608
10:51:43.172952,-5815284,-6864491,-8388608,-8388608,1333473,-8388608,-8388608,-8388608
10:51:43.172952,5304113,-40154,-8388608,-8388608,-162716,-8388608,-8388608,-8388608
10:51:43.189868,8388607,3559225,-8388608,-8388608,-144024,-8388608,-8388608,-8388608
10:51:43.189868,1753931,-750237,-8388608,-8388608,1355133,-8388608,-8388608,-8388608
10:51:43.189868,-7945494,-7035559,-8388608,-8388608,2271763,-8388608,-8388608,-8388608
10:51:43.189868,-5901813,-6597283,-8388608,-8388608,1350603,-8388608,-8388608,-8388608
10:51:43.206210,5217365,15494,-8388608,-8388608,-150606,-8388608,-8388608,-8388608
10:51:43.210294,8388607,3575877,-8388608,-8388608,-153415,-8388608,-8388608,-8388608
10:51:43.213172,1850424,-606539,-8388608,-8388608,1340381,-8388608,-8388608,-8388608
10:51:43.216983,-7914884,-6814597,-8388608,-8388608,2270663,-8388608,-8388608,-8388608
10:51:43.221856,-5988697,-6386551,-8388608,-8388608,1367228,-8388608,-8388608,-8388608
10:51:43.226816,5128615,188796,-8388608,-8388608,-143461,-8388608,-8388608,-8388608
10:51:43.230851,8388607,3713694,-8388608,-8388608,-159532,-8388608,-8388608,-8388608
10:51:43.234895,1962819,-553678,-8388608,-8388608,1332978,-8388608,-8388608,-8388608
10:51:43.238095,-7876358,-6890508,-8388608,-8388608,2273901,-8388608,-8388608,-8388608
10:51:43.239582,-6077442,-6476784,-8388608,-8388608,1384758,-8388608,-8388608,-8388608
10:51:43.239582,5036694,222049,-8388608,-8388608,-132853,-8388608,-8388608,-8388608
10:51:43.239582,8388607,3831262,-8388608,-8388608,-168313,-8388608,-8388608,-8388608
10:51:43.239582,2057112,-517364,-8388608,-8388608,1315134,-8388608,-8388608,-8388608
10:51:43.256466,-7842894,-7022268,-8388608,-8388608,2279751,-8388608,-8388608,-8388608
10:51:43.256466,-6163919,-6649437,-8388608,-8388608,1409710,-8388608,-8388608,-8388608
10:51:43.256466,4940873,200502,-8388608,-8388608,-120729,-8388608,-8388608,-8388608
10:51:43.256466,8388607,3940803,-8388608,-8388608,-172738,-8388608,-8388608,-8388608
10:51:43.272877,2144908,-426944,-8388608,-8388608,1300844,-8388608,-8388608,-8388608
10:51:43.272877,-7810833,-7052762,-8388608,-8388608,2270143,-8388608,-8388608,-8388608
10:51:43.272877,-6237227,-6735262,-8388608,-8388608,1409846,-8388608,-8388608,-8388608
10:51:43.272877,4861607,192963,-8388608,-8388608,-111665,-8388608,-8388608,-8388608
10:51:43.289719,8388607,4071984,-8388608,-8388608,-179947,-8388608,-8388608,-8388608
10:51:43.289719,2236618,-84168,-8388608,-8388608,1286229,-8388608,-8388608,-8388608
10:51:43.289719,-7774416,-6626604,-8388608,-8388608,2273364,-8388608,-8388608,-8388608
10:51:43.289719,-6294004,-6530252,-8388608,-8388608,1428328,-8388608,-8388608,-8388608
10:51:43.305917,4795261,17583,-8388608,-8388608,-105693,-8388608,-8388608,-8388608
10:51:43.309769,8388607,3839971,-8388608,-8388608,-185508,-8388608,-8388608,-8388608
10:51:43.309769,2329113,67881,-8388608,-8388608,1276093,-8388608,-8388608,-8388608
10:51:43.309769,-7736517,-6106032,-8388608,-8388608,2282563,-8388608,-8388608,-8388608
10:51:43.321580,-6375893,-6080267,-8388608,-8388608,1447673,-8388608,-8388608,-8388608
10:51:43.322947,4690238,59602,-8388608,-8388608,-102173,-8388608,-8388608,-8388608
10:51:43.322947,8388607,3748954,-8388608,-8388608,-193389,-8388608,-8388608,-8388608
10:51:43.322947,2424519,290369,-8388608,-8388608,1261569,-8388608,-8388608,-8388608
10:51:43.338448,-7693091,-5593899,-8388608,-8388608,2280448,-8388608,-8388608,-8388608
10:51:43.339281,-6469505,-5593023,-8388608,-8388608,1465194,-8388608,-8388608,-8388608
10:51:43.339281,4565028,363353,-8388608,-8388608,-79719,-8388608,-8388608,-8388608
10:51:43.339281,8388607,3986509,-8388608,-8388608,-188436,-8388608,-8388608,-8388608
10:51:43.354291,2491392,427684,-8388608,-8388608,1250761,-8388608,-8388608,-8388608
10:51:43.356140,-7660624,-5641657,-8388608,-8388608,2278392,-8388608,-8388608,-8388608
10:51:43.356140,-6533536,-5588116,-8388608,-8388608,1475951,-8388608,-8388608,-8388608
10:51:43.356140,4484963,669724,-8388608,-8388608,-77145,-8388608,-8388608,-8388608
10:51:43.356140,8388607,4478778,-8388608,-8388608,-207255,-8388608,-8388608,-8388608
10:51:43.373107,2579092,900636,-8388608,-8388608,1240327,-8388608,-8388608,-8388608
10:51:43.373107,-7621614,-5264431,-8388608,-8388608,2285618,-8388608,-8388608,-8388608
10:51:43.373107,-6607254,-5295641,-8388608,-8388608,1494926,-8388608,-8388608,-8388608
10:51:43.373107,4388719,1013890,-8388608,-8388608,-65867,-8388608,-8388608,-8388608
10:51:43.389537,8388607,4989431,-8388608,-8388608,-206344,-8388608,-8388608,-8388608
10:51:43.390424,2659109,1544071,-8388608,-8388608,1216515,-8388608,-8388608,-8388608
10:51:43.390424,-7588151,-4657871,-8388608,-8388608,2275798,-8388608,-8388608,-8388608
10:51:43.390424,-6665874,-4804141,-8388608,-8388608,1512883,-8388608,-8388608,-8388608
10:51:43.406062,4312215,1478463,-8388608,-8388608,-51421,-8388608,-8388608,-8388608
10:51:43.406734,8388607,5570916,-8388608,-8388608,-221969,-8388608,-8388608,-8388608
10:51:43.413990,2746236,2196600,-8388608,-8388608,1202459,-8388608,-8388608,-8388608
10:51:43.413990,-7547537,-4059178,-8388608,-8388608,2274549,-8388608,-8388608,-8388608
10:51:43.422783,-6724753,-4284172,-8388608,-8388608,1519105,-8388608,-8388608,-8388608
10:51:43.426862,4230645,2028561,-8388608,-8388608,-57564,-8388608,-8388608,-8388608
10:51:43.431079,8388607,6224833,-8388608,-8388608,-232448,-8388608,-8388608,-8388608
10:51:43.434257,2831201,2986302,-8388608,-8388608,1182081,-8388608,-8388608,-8388608
10:51:43.438961,-7506410,-3220503,-8388608,-8388608,2265664,-8388608,-8388608,-8388608
10:51:43.439283,-6791561,-3555454,-8388608,-8388608,1528678,-8388608,-8388608,-8388608
10:51:43.439283,4133547,2557672,-8388608,-8388608,-42287,-8388608,-8388608,-8388608
10:51:43.439283,8388607,6707389,-8388608,-8388608,-237427,-8388608,-8388608,-8388608
10:51:43.454984,2937356,3684633,-8388608,-8388608,1172104,-8388608,-8388608,-8388608
10:51:43.456211,-7451606,-2342487,-8388608,-8388608,2292329,-8388608,-8388608,-8388608
10:51:43.456211,-6849136,-2818431,-8388608,-8388608,1561455,-8388608,-8388608,-8388608
10:51:43.456211,4048749,2748636,-8388608,-8388608,-26963,-8388608,-8388608,-8388608
10:51:43.456211,8388607,6524245,-8388608,-8388608,-242329,-8388608,-8388608,-8388608
10:51:43.473220,3051298,3805605,-8388608,-8388608,1158751,-8388608,-8388608,-8388608
10:51:43.473220,-7393249,-1770277,-8388608,-8388608,2272570,-8388608,-8388608,-8388608
10:51:43.473220,-6913499,-2262851,-8388608,-8388608,1561488,-8388608,-8388608,-8388608
10:51:43.473220,3947793,2761804,-8388608,-8388608,-11438,-8388608,-8388608,-8388608
10:51:43.489651,8388607,6128266,-8388608,-8388608,-237306,-8388608,-8388608,-8388608
10:51:43.489651,3166886,3664779,-8388608,-8388608,1143360,-8388608,-8388608,-8388608
10:51:43.489651,-7326291,-1506981,-8388608,-8388608,2275480,-8388608,-8388608,-8388608
10:51:43.489651,-6962795,-2196252,-8388608,-8388608,1587104,-8388608,-8388608,-8388608
10:51:43.505976,3861276,1879865,-8388608,-8388608,-573,-8388608,-8388608,-8388608
10:51:43.506567,8388607,4607487,-8388608,-8388608,-242637,-8388608,-8388608,-8388608
10:51:43.506567,3341484,2859283,-8388608,-8388608,1117479,-8388608,-8388608,-8388608
10:51:43.506567,-7196309,-1211150,-8388608,-8388608,2263983,-8388608,-8388608,-8388608
10:51:43.521756,-6986142,-1921172,-8388608,-8388608,1597933,-8388608,-8388608,-8388608
10:51:43.525774,3728048,1225805,-8388608,-8388608,17074,-8388608,-8388608,-8388608
10:51:43.529174,8388607,3442156,-8388608,-8388608,-249871,-8388608,-8388608,-8388608
10:51:43.529174,3367814,2121694,-8388608,-8388608,1104823,-8388608,-8388608,-8388608
10:51:43.538172,-7118487,-1078319,-8388608,-8388608,2259460,-8388608,-8388608,-8388608
10:51:43.539156,-7003799,-1680324,-8388608,-8388608,1605413,-8388608,-8388608,-8388608
10:51:43.539156,3637670,784849,-8388608,-8388608,23536,-8388608,-8388608,-8388608
10:51:43.539156,8388607,2544294,-8388608,-8388608,-260099,-8388608,-8388608,-8388608
10:51:43.554278,3367809,1480192,-8388608,-8388608,1083458,-8388608,-8388608,-8388608
10:51:43.556123,-7065892,-1028262,-8388608,-8388608,2255628,-8388608,-8388608,-8388608
10:51:43.556123,-7001787,-1408394,-8388608,-8388608,1619418,-8388608,-8388608,-8388608
10:51:43.556123,3585848,700949,-8388608,-8388608,21664,-8388608,-8388608,-8388608
10:51:43.571659,8388607,2088345,-8388608,-8388608,-275201,-8388608,-8388608,-8388608
10:51:43.573136,3402031,1277939,-8388608,-8388608,1073501,-8388608,-8388608,-8388608
10:51:43.573136,-7038032,-532610,-8388608,-8388608,2257033,-8388608,-8388608,-8388608
10:51:43.573136,-7046634,-729984,-8388608,-8388608,1640053,-8388608,-8388608,-8388608
10:51:43.573136,3499724,910309,-8388608,-8388608,36971,-8388608,-8388608,-8388608
10:51:43.589963,8388607,1970726,-8388608,-8388608,-280497,-8388608,-8388608,-8388608
10:51:43.589963,3485339,1037878,-8388608,-8388608,1054473,-8388608,-8388608,-8388608
10:51:43.589963,-6983013,-995904,-8388608,-8388608,2255190,-8388608,-8388608,-8388608
10:51:43.589963,-7081026,-1230070,-8388608,-8388608,1648946,-8388608,-8388608,-8388608
10:51:43.606374,3434080,789157,-8388608,-8388608,40792,-8388608,-8388608,-8388608
10:51:43.607930,8388607,2134590,-8388608,-8388608,-293384,-8388608,-8388608,-8388608
10:51:43.607930,3571127,1060659,-8388608,-8388608,1039616,-8388608,-8388608,-8388608
10:51:43.607930,-6924567,-1370779,-8388608,-8388608,2255727,-8388608,-8388608,-8388608
10:51:43.621435,-7118974,-1685346,-8388608,-8388608,1667489,-8388608,-8388608,-8388608
10:51:43.627029,3357158,855036,-8388608,-8388608,49544,-8388608,-8388608,-8388608
10:51:43.630101,8388607,2673303,-8388608,-8388608,-310110,-8388608,-8388608,-8388608
10:51:43.632693,3663111,1277544,-8388608,-8388608,1022504,-8388608,-8388608,-8388608
10:51:43.638082,-6856506,-1835899,-8388608,-8388608,2264774,-8388608,-8388608,-8388608
10:51:43.642305,-7163969,-2254658,-8388608,-8388608,1683779,-8388608,-8388608,-8388608
10:51:43.646475,3259181,689576,-8388608,-8388608,50317,-8388608,-8388608,-8388608
10:51:43.649835,8388607,2854160,-8388608,-8388608,-322882,-8388608,-8388608,-8388608
10:51:43.653859,3699075,1512859,-8388608,-8388608,1014584,-8388608,-8388608,-8388608
10:51:43.655711,-6821269,-1848554,-8388608,-8388608,2276121,-8388608,-8388608,-8388608
10:51:43.655711,-7202314,-2409235,-8388608,-8388608,1699644,-8388608,-8388608,-8388608
10:51:43.655711,3161496,623350,-8388608,-8388608,57545,-8388608,-8388608,-8388608
10:51:43.655711,8388607,2891109,-8388608,-8388608,-324447,-8388608,-8388608,-8388608
10:51:43.672516,3706349,1529370,-8388608,-8388608,1002025,-8388608,-8388608,-8388608
10:51:43.672516,-6815294,-1857232,-8388608,-8388608,2276345,-8388608,-8388608,-8388608
10:51:43.672516,-7273658,-2461801,-8388608,-8388608,1721288,-8388608,-8388608,-8388608
10:51:43.672516,3028101,360044,-8388608,-8388608,77944,-8388608,-8388608,-8388608
10:51:43.689439,8388607,2459401,-8388608,-8388608,-328251,-8388608,-8388608,-8388608
10:51:43.689439,3741430,1234021,-8388608,-8388608,997677,-8388608,-8388608,-8388608
10:51:43.689439,-6793792,-1834418,-8388608,-8388608,2283061,-8388608,-8388608,-8388608
10:51:43.689439,-7339746,-2385248,-8388608,-8388608,1735248,-8388608,-8388608,-8388608
10:51:43.706081,2891123,139949,-8388608,-8388608,86455,-8388608,-8388608,-8388608
10:51:43.706081,8388607,2019523,-8388608,-8388608,-336340,-8388608,-8388608,-8388608
10:51:43.706081,3824089,953886,-8388608,-8388608,980033,-8388608,-8388608,-8388608
10:51:43.706081,-6727041,-1724774,-8388608,-8388608,2283740,-8388608,-8388608,-8388608
10:51:43.721500,-7392296,-2213411,-8388608,-8388608,1745419,-8388608,-8388608,-8388608
10:51:43.723062,2766439,-26644,-8388608,-8388608,89148,-8388608,-8388608,-8388608
10:51:43.723062,8388607,1563999,-8388608,-8388608,-344151,-8388608,-8388608,-8388608
10:51:43.723062,3885904,606864,-8388608,-8388608,967756,-8388608,-8388608,-8388608
10:51:43.723062,-6677669,-1736581,-8388608,-8388608,2283414,-8388608,-8388608,-8388608
10:51:43.741322,-7438579,-2137990,-8388608,-8388608,1754715,-8388608,-8388608,-8388608
10:51:43.745130,2660971,-158442,-8388608,-8388608,97538,-8388608,-8388608,-8388608
10:51:43.745130,8388607,1279515,-8388608,-8388608,-344508,-8388608,-8388608,-8388608
10:51:43.745130,3964718,336118,-8388608,-8388608,949366,-8388608,-8388608,-8388608
10:51:43.755852,-6621128,-1987723,-8388608,-8388608,2270923,-8388608,-8388608,-8388608
10:51:43.755852,-7486757,-2358644,-8388608,-8388608,1773792,-8388608,-8388608,-8388608
10:51:43.755852,2563231,-155177,-8388608,-8388608,105710,-8388608,-8388608,-8388608
10:51:43.755852,8388607,1479783,-8388608,-8388608,-360641,-8388608,-8388608,-8388608
10:51:43.773174,4083720,432297,-8388608,-8388608,939216,-8388608,-8388608,-8388608
10:51:43.773174,-6501716,-2164559,-8388608,-8388608,2283760,-8388608,-8388608,-8388608
10:51:43.773174,-7452130,-2610326,-8388608,-8388608,1781893,-8388608,-8388608,-8388608
10:51:43.773174,2586791,-215541,-8388608,-8388608,102493,-8388608,-8388608,-8388608
10:51:43.789454,8388607,1625763,-8388608,-8388608,-372527,-8388608,-8388608,-8388608
10:51:43.789454,4119265,533271,-8388608,-8388608,918208,-8388608,-8388608,-8388608
10:51:43.789454,-6480032,-2316671,-8388608,-8388608,2278039,-8388608,-8388608,-8388608
10:51:43.789454,-7503117,-2858563,-8388608,-8388608,1802591,-8388608,-8388608,-8388608
10:51:43.805622,2486681,-269479,-8388608,-8388608,120048,-8388608,-8388608,-8388608
10:51:43.806286,8388607,1787494,-8388608,-8388608,-384281,-8388608,-8388608,-8388608
10:51:43.806286,4179139,684093,-8388608,-8388608,907766,-8388608,-8388608,-8388608
10:51:43.806286,-6441850,-2324044,-8388608,-8388608,2282127,-8388608,-8388608,-8388608
10:51:43.821260,-7554787,-2915666,-8388608,-8388608,1805504,-8388608,-8388608,-8388608
10:51:43.822890,2376019,-148902,-8388608,-8388608,119194,-8388608,-8388608,-8388608
10:51:43.822890,8384135,2114491,-8388608,-8388608,-393546,-8388608,-8388608,-8388608
10:51:43.822890,4256074,962209,-8388608,-8388608,883879,-8388608,-8388608,-8388608
10:51:43.838103,-6379163,-2315374,-8388608,-8388608,2278203,-8388608,-8388608,-8388608
10:51:43.841192,-7595706,-3012777,-8388608,-8388608,1823886,-8388608,-8388608,-8388608
10:51:43.845463,2274942,-31835,-8388608,-8388608,128094,-8388608,-8388608,-8388608
10:51:43.849098,8377356,2466863,-8388608,-8388608,-402753,-8388608,-8388608,-8388608
10:51:43.850112,4358044,1291178,-8388608,-8388608,871632,-8388608,-8388608,-8388608
10:51:43.857595,-6285891,-2214262,-8388608,-8388608,2277833,-8388608,-8388608,-8388608
10:51:43.861800,-7625209,-3037147,-8388608,-8388608,1845047,-8388608,-8388608,-8388608
10:51:43.866021,2192147,59519,-8388608,-8388608,144182,-8388608,-8388608,-8388608
10:51:43.868737,8372633,2736552,-8388608,-8388608,-401608,-8388608,-8388608,-8388608
10:51:43.872084,4448718,1591815,-8388608,-8388608,863555,-8388608,-8388608,-8388608
10:51:43.872084,-6207899,-2050996,-8388608,-8388608,2275251,-8388608,-8388608,-8388608
10:51:43.872084,-7660967,-2989326,-8388608,-8388608,1847816,-8388608,-8388608,-8388608
10:51:43.872084,2101573,117966,-8388608,-8388608,151209,-8388608,-8388608,-8388608
10:51:43.889343,8366009,2826291,-8388608,-8388608,-399854,-8388608,-8388608,-8388608
10:51:43.889343,4532977,1652091,-8388608,-8388608,856053,-8388608,-8388608,-8388608
10:51:43.889343,-6138520,-2077627,-8388608,-8388608,2271751,-8388608,-8388608,-8388608
10:51:43.889343,-7697490,-3085819,-8388608,-8388608,1866923,-8388608,-8388608,-8388608
10:51:43.905529,2012896,-70679,-8388608,-8388608,168086,-8388608,-8388608,-8388608
10:51:43.906076,8358573,2572524,-8388608,-8388608,-407957,-8388608,-8388608,-8388608
10:51:43.906076,4620768,1434770,-8388608,-8388608,842556,-8388608,-8388608,-8388608
10:51:43.906076,-6061342,-2243731,-8388608,-8388608,2266729,-8388608,-8388608,-8388608
10:51:43.921267,-7735012,-3261754,-8388608,-8388608,1878064,-8388608,-8388608,-8388608
10:51:43.922870,1916425,-341877,-8388608,-8388608,182547,-8388608,-8388608,-8388608
10:51:43.922870,8347919,2223408,-8388608,-8388608,-411601,-8388608,-8388608,-8388608
10:51:43.922870,4701507,1153439,-8388608,-8388608,829232,-8388608,-8388608,-8388608
10:51:43.922870,-5993771,-2333327,-8388608,-8388608,2262579,-8388608,-8388608,-8388608
10:51:43.939530,-7779226,-3282786,-8388608,-8388608,1889439,-8388608,-8388608,-8388608
10:51:43.939530,1802629,-405806,-8388608,-8388608,199183,-8388608,-8388608,-8388608
10:51:43.939530,8335033,2137776,-8388608,-8388608,-419018,-8388608,-8388608,-8388608
10:51:43.939530,4769094,1035969,-8388608,-8388608,798661,-8388608,-8388608,-8388608
10:51:43.956479,-5940980,-2544167,-8388608,-8388608,2260843,-8388608,-8388608,-8388608
10:51:43.961432,-7800963,-3544750,-8388608,-8388608,1905286,-8388608,-8388608,-8388608
10:51:43.962202,1768854,-567055,-8388608,-8388608,202113,-8388608,-8388608,-8388608
10:51:43.962202,8337293,2119873,-8388608,-8388608,-425236,-8388608,-8388608,-8388608
10:51:43.972305,4814197,1044454,-8388608,-8388608,794751,-8388608,-8388608,-8388608
10:51:43.972305,-5920734,-2624008,-8388608,-8388608,2257394,-8388608,-8388608,-8388608
10:51:43.972305,-7848494,-3671026,-8388608,-8388608,1913624,-8388608,-8388608,-8388608
10:51:43.972305,1652835,-704927,-8388608,-8388608,222999,-8388608,-8388608,-8388608
10:51:43.989416,8323218,1980298,-8388608,-8388608,-412481,-8388608,-8388608,-8388608
10:51:43.989416,4882599,995491,-8388608,-8388608,785915,-8388608,-8388608,-8388608
10:51:43.989416,-5853929,-2514384,-8388608,-8388608,2252779,-8388608,-8388608,-8388608
10:51:43.989416,-7877751,-3557112,-8388608,-8388608,1923070,-8388608,-8388608,-8388608
10:51:44.004416,1583140,-805704,-8388608,-8388608,231661,-8388608,-8388608,-8388608
10:51:44.005983,8318460,1707317,-8388608,-8388608,-416737,-8388608,-8388608,-8388608
10:51:44.005983,4946794,771416,-8388608,-8388608,770736,-8388608,-8388608,-8388608
10:51:44.005983,-5815546,-2615789,-8388608,-8388608,2248043,-8388608,-8388608,-8388608
10:51:44.021263,-7926172,-3593247,-8388608,-8388608,1935583,-8388608,-8388608,-8388608
10:51:44.022840,1452191,-763423,-8388608,-8388608,243688,-8388608,-8388608,-8388608
10:51:44.022840,8300674,1767346,-8388608,-8388608,-422036,-8388608,-8388608,-8388608
10:51:44.022840,5001379,658417,-8388608,-8388608,749629,-8388608,-8388608,-8388608
10:51:44.037754,-5760288,-3042463,-8388608,-8388608,2241983,-8388608,-8388608,-8388608
10:51:44.039208,-7948792,-4102217,-8388608,-8388608,1950459,-8388608,-8388608,-8388608
10:51:44.039208,1376474,-1030550,-8388608,-8388608,253133,-8388608,-8388608,-8388608
10:51:44.039208,8289206,1729268,-8388608,-8388608,-433671,-8388608,-8388608,-8388608
10:51:44.039208,5054969,627969,-8388608,-8388608,737208,-8388608,-8388608,-8388608
10:51:44.056406,-5707892,-3184882,-8388608,-8388608,2238136,-8388608,-8388608,-8388608
10:51:44.060495,-7985077,-4318274,-8388608,-8388608,1950934,-8388608,-8388608,-8388608
10:51:44.064257,1271569,-1282163,-8388608,-8388608,255441,-8388608,-8388608,-8388608
10:51:44.067103,8274918,1512164,-8388608,-8388608,-432133,-8388608,-8388608,-8388608
10:51:44.072143,5122953,514258,-8388608,-8388608,731002,-8388608,-8388608,-8388608
10:51:44.077140,-5648748,-3205129,-8388608,-8388608,2238124,-8388608,-8388608,-8388608
10:51:44.081140,-8022878,-4389753,-8388608,-8388608,1973235,-8388608,-8388608,-8388608
10:51:44.084141,1158309,-1674053,-8388608,-8388608,283161,-8388608,-8388608,-8388608
10:51:44.088131,8255605,811514,-8388608,-8388608,-426806,-8388608,-8388608,-8388608
10:51:44.088131,5180914,32178,-8388608,-8388608,712331,-8388608,-8388608,-8388608
10:51:44.088131,-5595612,-2890834,-8388608,-8388608,2227319,-8388608,-8388608,-8388608
10:51:44.088131,-8071120,-3760251,-8388608,-8388608,1985403,-8388608,-8388608,-8388608
10:51:44.105311,1010466,-1447805,-8388608,-8388608,302201,-8388608,-8388608,-8388608
10:51:44.105311,8233413,722590,-8388608,-8388608,-433872,-8388608,-8388608,-8388608
10:51:44.105311,5247780,8343,-8388608,-8388608,689578,-8388608,-8388608,-8388608
10:51:44.105311,-5537027,-2727470,-8388608,-8388608,2221698,-8388608,-8388608,-8388608
10:51:44.120349,-8112262,-3561651,-8388608,-8388608,1995664,-8388608,-8388608,-8388608
10:51:44.122947,880235,-1352969,-8388608,-8388608,313011,-8388608,-8388608,-8388608
10:51:44.122947,8213713,758425,-8388608,-8388608,-430083,-8388608,-8388608,-8388608
10:51:44.122947,5306189,36418,-8388608,-8388608,687242,-8388608,-8388608,-8388608
10:51:44.136455,-5483290,-2738292,-8388608,-8388608,2212004,-8388608,-8388608,-8388608
10:51:44.136455,-8144602,-3588771,-8388608,-8388608,2001070,-8388608,-8388608,-8388608
10:51:44.136455,766796,-1260094,-8388608,-8388608,320681,-8388608,-8388608,-8388608
10:51:44.136455,8194613,987106,-8388608,-8388608,-437719,-8388608,-8388608,-8388608
10:51:44.152165,5363327,227769,-8388608,-8388608,663778,-8388608,-8388608,-8388608
10:51:44.156782,-5418421,-2705868,-8388608,-8388608,2212186,-8388608,-8388608,-8388608
10:51:44.160431,-8165634,-3615697,-8388608,-8388608,2009695,-8388608,-8388608,-8388608
10:51:44.160431,678229,-1195572,-8388608,-8388608,326749,-8388608,-8388608,-8388608
10:51:44.160431,8178188,1154140,-8388608,-8388608,-445458,-8388608,-8388608,-8388608
10:51:44.160431,5410072,393124,-8388608,-8388608,647398,-8388608,-8388608,-8388608
10:51:44.175483,-5366951,-2606424,-8388608,-8388608,2201468,-8388608,-8388608,-8388608
10:51:44.175483,-8195617,-3555267,-8388608,-8388608,2021743,-8388608,-8388608,-8388608
10:51:44.175483,562374,-1110724,-8388608,-8388608,343207,-8388608,-8388608,-8388608
10:51:44.175483,8156029,1296877,-8388608,-8388608,-454351,-8388608,-8388608,-8388608
10:51:44.191155,5458681,551686,-8388608,-8388608,638693,-8388608,-8388608,-8388608
10:51:44.191155,-5318031,-2504522,-8388608,-8388608,2208270,-8388608,-8388608,-8388608
10:51:44.191155,-8228010,-3505706,-8388608,-8388608,2041916,-8388608,-8388608,-8388608
10:51:44.191155,444841,-1049004,-8388608,-8388608,368380,-8388608,-8388608,-8388608
10:51:44.206810,8134717,1410550,-8388608,-8388608,-442135,-8388608,-8388608,-8388608
10:51:44.206810,5512311,671883,-8388608,-8388608,632338,-8388608,-8388608,-8388608
10:51:44.206810,-5262311,-2491029,-8388608,-8388608,2203392,-8388608,-8388608,-8388608
10:51:44.206810,-8254970,-3593366,-8388608,-8388608,2046178,-8388608,-8388608,-8388608
10:51:44.222986,337627,-1107284,-8388608,-8388608,372582,-8388608,-8388608,-8388608
10:51:44.222986,8113706,1418351,-8388608,-8388608,-448047,-8388608,-8388608,-8388608
10:51:44.222986,5575291,689609,-8388608,-8388608,613748,-8388608,-8388608,-8388608
10:51:44.222986,-5188794,-2552239,-8388608,-8388608,2191578,-8388608,-8388608,-8388608
10:51:44.238497,-8278884,-3720616,-8388608,-8388608,2059069,-8388608,-8388608,-8388608
10:51:44.238497,235399,-1212061,-8388608,-8388608,390610,-8388608,-8388608,-8388608
10:51:44.238497,8093240,1376361,-8388608,-8388608,-450646,-8388608,-8388608,-8388608
10:51:44.254129,5651816,666779,-8388608,-8388608,597619,-8388608,-8388608,-8388608
10:51:44.254129,-5097015,-2639659,-8388608,-8388608,2180741,-8388608,-8388608,-8388608
10:51:44.254129,-8294454,-3866761,-8388608,-8388608,2061106,-8388608,-8388608,-8388608
10:51:44.254129,157404,-1339697,-8388608,-8388608,400626,-8388608,-8388608,-8388608
10:51:44.271088,8078213,1308373,-8388608,-8388608,-441954,-8388608,-8388608,-8388608
10:51:44.274171,5716168,598001,-8388608,-8388608,587454,-8388608,-8388608,-8388608
10:51:44.277093,-5020008,-2860675,-8388608,-8388608,2174719,-8388608,-8388608,-8388608
10:51:44.278131,-8316192,-4203984,-8388608,-8388608,2072164,-8388608,-8388608,-8388608
10:51:44.278131,59363,-1572944,-8388608,-8388608,414004,-8388608,-8388608,-8388608
10:51:44.288876,8056772,1211253,-8388608,-8388608,-460786,-8388608,-8388608,-8388608
10:51:44.294495,5777754,482495,-8388608,-8388608,565303,-8388608,-8388608,-8388608
