10:49:52.619581,-8388608,-8388608,-8388608,-8388608,570778,-8388608,-8388608,-8388608
10:49:52.627200,-8388608,-8388608,-8388608,-8388608,587671,-8388608,-8388608,-8388608
10:49:52.627200,-8388608,-8388608,-8388608,-8388608,565983,-8388608,-8388608,-8388608
10:49:52.636319,-8388608,-8388608,-8388608,-8388608,532308,-8388608,-8388608,-8388608
10:49:52.636319,-8388608,-8388608,-8388608,-8388608,536078,-8388608,-8388608,-8388608
10:49:52.636319,-8388608,-8388608,-8388608,-8388608,569071,-8388608,-8388608,-8388608
10:49:52.636319,-8388608,-8388608,-8388608,-8388608,586855,-8388608,-8388608,-8388608
10:49:52.652639,-8388608,-8388608,-8388608,-8388608,563968,-8388608,-8388608,-8388608
10:49:52.653858,-8388608,-8388608,-8388608,-8388608,535748,-8388608,-8388608,-8388608
10:49:52.653858,-8388608,-8388608,-8388608,-8388608,534532,-8388608,-8388608,-8388608
10:49:52.653858,-8388608,-8388608,-8388608,-8388608,565444,-8388608,-8388608,-8388608
10:49:52.669231,-8388608,-8388608,-8388608,-8388608,588697,-8388608,-8388608,-8388608
10:49:52.672289,-8388608,-8388608,-8388608,-8388608,568776,-8388608,-8388608,-8388608
10:49:52.673550,-8388608,-8388608,-8388608,-8388608,537044,-8388608,-8388608,-8388608
10:49:52.673550,-8388608,-8388608,-8388608,-8388608,534655,-8388608,-8388608,-8388608
10:49:52.673550,-8388608,-8388608,-8388608,-8388608,569126,-8388608,-8388608,-8388608
10:49:52.689572,-8388608,-8388608,-8388608,-8388608,590390,-8388608,-8388608,-8388608
10:49:52.693912,-8388608,-8388608,-8388608,-8388608,570689,-8388608,-8388608,-8388608
10:49:52.696537,-8388608,-8388608,-8388608,-8388608,534959,-8388608,-8388608,-8388608
10:49:52.700546,-8388608,-8388608,-8388608,-8388608,533079,-8388608,-8388608,-8388608
10:49:52.704573,-8388608,-8388608,-8388608,-8388608,565154,-8388608,-8388608,-8388608
10:49:52.709373,-8388608,-8388608,-8388608,-8388608,585793,-8388608,-8388608,-8388608
10:49:52.709373,-8388608,-8388608,-8388608,-8388608,570801,-8388608,-8388608,-8388608
10:49:52.718280,-8388608,-8388608,-8388608,-8388608,535048,-8388608,-8388608,-8388608
10:49:52.719851,-8388608,-8388608,-8388608,-8388608,537009,-8388608,-8388608,-8388608
10:49:52.719851,-8388608,-8388608,-8388608,-8388608,565768,-8388608,-8388608,-8388608
10:49:52.727459,-8388608,-8388608,-8388608,-8388608,584953,-8388608,-8388608,-8388608
10:49:52.727459,-8388608,-8388608,-8388608,-8388608,568568,-8388608,-8388608,-8388608
10:49:52.736551,-8388608,-8388608,-8388608,-8388608,531711,-8388608,-8388608,-8388608
10:49:52.736551,-8388608,-8388608,-8388608,-8388608,534029,-8388608,-8388608,-8388608
10:49:52.736551,-8388608,-8388608,-8388608,-8388608,566189,-8388608,-8388608,-8388608
10:49:52.736551,-8388608,-8388608,-8388608,-8388608,586844,-8388608,-8388608,-8388608
10:49:52.752062,-8388608,-8388608,-8388608,-8388608,569586,-8388608,-8388608,-8388608
10:49:52.753227,-8388608,-8388608,-8388608,-8388608,535206,-8388608,-8388608,-8388608
10:49:52.753227,-8388608,-8388608,-8388608,-8388608,534016,-8388608,-8388608,-8388608
10:49:52.753227,-8388608,-8388608,-8388608,-8388608,560054,-8388608,-8388608,-8388608
10:49:52.769296,-8388608,-8388608,-8388608,-8388608,582692,-8388608,-8388608,-8388608
10:49:52.770581,-8388608,-8388608,-8388608,-8388608,570784,-8388608,-8388608,-8388608
10:49:52.770581,-8388608,-8388608,-8388608,-8388608,534594,-8388608,-8388608,-8388608
10:49:52.770581,-8388608,-8388608,-8388608,-8388608,537038,-8388608,-8388608,-8388608
10:49:52.785956,-8388608,-8388608,-8388608,-8388608,569483,-8388608,-8388608,-8388608
10:49:52.786661,-8388608,-8388608,-8388608,-8388608,586421,-8388608,-8388608,-8388608
10:49:52.786661,-8388608,-8388608,-8388608,-8388608,569470,-8388608,-8388608,-8388608
10:49:52.786661,-8388608,-8388608,-8388608,-8388608,539256,-8388608,-8388608,-8388608
10:49:52.801668,-8388608,-8388608,-8388608,-8388608,533233,-8388608,-8388608,-8388608
10:49:52.802833,-8388608,-8388608,-8388608,-8388608,560842,-8388608,-8388608,-8388608
10:49:52.802833,-8388608,-8388608,-8388608,-8388608,585789,-8388608,-8388608,-8388608
10:49:52.802833,-8388608,-8388608,-8388608,-8388608,574411,-8388608,-8388608,-8388608
10:49:52.802833,-8388608,-8388608,-8388608,-8388608,536141,-8388608,-8388608,-8388608
10:49:52.821375,-8388608,-8388608,-8388608,-8388608,529094,-8388608,-8388608,-8388608
10:49:52.822617,-8388608,-8388608,-8388608,-8388608,562891,-8388608,-8388608,-8388608
10:49:52.827743,-8388608,-8388608,-8388608,-8388608,590060,-8388608,-8388608,-8388608
10:49:52.827743,-8388608,-8388608,-8388608,-8388608,576321,-8388608,-8388608,-8388608
10:49:52.835720,-8388608,-8388608,-8388608,-8388608,539809,-8388608,-8388608,-8388608
10:49:52.839877,-8388608,-8388608,-8388608,-8388608,532343,-8388608,-8388608,-8388608
10:49:52.844215,-8388608,-8388608,-8388608,-8388608,560719,-8388608,-8388608,-8388608
10:49:52.845203,-8388608,-8388608,-8388608,-8388608,584327,-8388608,-8388608,-8388608
10:49:52.853335,-8388608,-8388608,-8388608,-8388608,568280,-8388608,-8388608,-8388608
10:49:52.856376,-8388608,-8388608,-8388608,-8388608,537374,-8388608,-8388608,-8388608
10:49:52.857804,-8388608,-8388608,-8388608,-8388608,534854,-8388608,-8388608,-8388608
10:49:52.857804,-8388608,-8388608,-8388608,-8388608,562472,-8388608,-8388608,-8388608
10:49:52.867949,-8388608,-8388608,-8388608,-8388608,584508,-8388608,-8388608,-8388608
10:49:52.871792,-8388608,-8388608,-8388608,-8388608,566964,-8388608,-8388608,-8388608
10:49:52.876698,-8388608,-8388608,-8388608,-8388608,536261,-8388608,-8388608,-8388608
10:49:52.881709,-8388608,-8388608,-8388608,-8388608,530908,-8388608,-8388608,-8388608
10:49:52.884073,-8388608,-8388608,-8388608,-8388608,558864,-8388608,-8388608,-8388608
10:49:52.885947,-8388608,-8388608,-8388608,-8388608,585794,-8388608,-8388608,-8388608
10:49:52.885947,-8388608,-8388608,-8388608,-8388608,569708,-8388608,-8388608,-8388608
10:49:52.885947,-8388608,-8388608,-8388608,-8388608,534251,-8388608,-8388608,-8388608
10:49:52.885947,-8388608,-8388608,-8388608,-8388608,531528,-8388608,-8388608,-8388608
10:49:52.902481,-8388608,-8388608,-8388608,-8388608,557267,-8388608,-8388608,-8388608
10:49:52.902481,-8388608,-8388608,-8388608,-8388608,579895,-8388608,-8388608,-8388608
10:49:52.902481,-8388608,-8388608,-8388608,-8388608,565706,-8388608,-8388608,-8388608
10:49:52.902481,-8388608,-8388608,-8388608,-8388608,532994,-8388608,-8388608,-8388608
10:49:52.919723,-8388608,-8388608,-8388608,-8388608,528779,-8388608,-8388608,-8388608
10:49:52.923888,-8388608,-8388608,-8388608,-8388608,564828,-8388608,-8388608,-8388608
10:49:52.927896,-8388608,-8388608,-8388608,-8388608,588698,-8388608,-8388608,-8388608
10:49:52.927896,-8388608,-8388608,-8388608,-8388608,573904,-8388608,-8388608,-8388608
10:49:52.935618,-8388608,-8388608,-8388608,-8388608,538052,-8388608,-8388608,-8388608
10:49:52.935618,-8388608,-8388608,-8388608,-8388608,529942,-8388608,-8388608,-8388608
10:49:52.935618,-8388608,-8388608,-8388608,-8388608,562443,-8388608,-8388608,-8388608
10:49:52.935618,-8388608,-8388608,-8388608,-8388608,585454,-8388608,-8388608,-8388608
10:49:52.952425,-8388608,-8388608,-8388608,-8388608,573861,-8388608,-8388608,-8388608
10:49:52.952425,-8388608,-8388608,-8388608,-8388608,538346,-8388608,-8388608,-8388608
10:49:52.952425,-8388608,-8388608,-8388608,-8388608,532290,-8388608,-8388608,-8388608
10:49:52.952425,-8388608,-8388608,-8388608,-8388608,560514,-8388608,-8388608,-8388608
10:49:52.952425,-8388608,-8388608,-8388608,-8388608,583689,-8388608,-8388608,-8388608
10:49:52.969462,-8388608,-8388608,-8388608,-8388608,569148,-8388608,-8388608,-8388608
10:49:52.969462,-8388608,-8388608,-8388608,-8388608,536233,-8388608,-8388608,-8388608
10:49:52.969462,-8388608,-8388608,-8388608,-8388608,532215,-8388608,-8388608,-8388608
10:49:52.984650,-8388608,-8388608,-8388608,-8388608,563113,-8388608,-8388608,-8388608
10:49:52.986190,-8388608,-8388608,-8388608,-8388608,586089,-8388608,-8388608,-8388608
10:49:52.986190,-8388608,-8388608,-8388608,-8388608,575441,-8388608,-8388608,-8388608
10:49:52.986190,-8388608,-8388608,-8388608,-8388608,541579,-8388608,-8388608,-8388608
10:49:52.986190,-8388608,-8388608,-8388608,-8388608,536881,-8388608,-8388608,-8388608
10:49:53.002369,-8388608,-8388608,-8388608,-8388608,566511,-8388608,-8388608,-8388608
10:49:53.002369,-8388608,-8388608,-8388608,-8388608,584385,-8388608,-8388608,-8388608
10:49:53.002369,-8388608,-8388608,-8388608,-8388608,571599,-8388608,-8388608,-8388608
10:49:53.002369,-8388608,-8388608,-8388608,-8388608,536821,-8388608,-8388608,-8388608
10:49:53.019485,-8388608,-8388608,-8388608,-8388608,523016,-8388608,-8388608,-8388608
10:49:53.019485,-8388608,-8388608,-8388608,-8388608,544886,-8388608,-8388608,-8388608
10:49:53.028000,-8388608,-8388608,-8388608,-8388608,562636,-8388608,-8388608,-8388608
10:49:53.028000,-8388608,-8388608,-8388608,-8388608,550545,-8388608,-8388608,-8388608
10:49:53.037571,-8388608,-8388608,-8388608,-8388608,523199,-8388608,-8388608,-8388608
10:49:53.040579,-8388608,-8388608,-8388608,-8388608,523485,-8388608,-8388608,-8388608
10:49:53.041728,-8388608,-8388608,-8388608,-8388608,557124,-8388608,-8388608,-8388608
10:49:53.041728,-8388608,-8388608,-8388608,-8388608,583020,-8388608,-8388608,-8388608
10:49:53.051928,-8388608,-8388608,-8388608,-8388608,568152,-8388608,-8388608,-8388608
10:49:53.055963,-8388608,-8388608,-8388608,-8388608,536030,-8388608,-8388608,-8388608
10:49:53.057442,-8388608,-8388608,-8388608,-8388608,537546,-8388608,-8388608,-8388608
10:49:53.057442,-8388608,-8388608,-8388608,-8388608,566148,-8388608,-8388608,-8388608
10:49:53.068603,-8388608,-8388608,-8388608,-8388608,587816,-8388608,-8388608,-8388608
10:49:53.071786,-8388608,-8388608,-8388608,-8388608,573286,-8388608,-8388608,-8388608
10:49:53.076003,-8388608,-8388608,-8388608,-8388608,533728,-8388608,-8388608,-8388608
10:49:53.079981,-8388608,-8388608,-8388608,-8388608,527094,-8388608,-8388608,-8388608
10:49:53.084109,-8388608,-8388608,-8388608,-8388608,559517,-8388608,-8388608,-8388608
10:49:53.085619,-8388608,-8388608,-8388608,-8388608,582569,-8388608,-8388608,-8388608
10:49:53.085619,-8388608,-8388608,-8388608,-8388608,568954,-8388608,-8388608,-8388608
10:49:53.085619,-8388608,-8388608,-8388608,-8388608,534521,-8388608,-8388608,-8388608
10:49:53.085619,-8388608,-8388608,-8388608,-8388608,533305,-8388608,-8388608,-8388608
10:49:53.102297,-8388608,-8388608,-8388608,-8388608,560236,-8388608,-8388608,-8388608
10:49:53.102297,-8388608,-8388608,-8388608,-8388608,580393,-8388608,-8388608,-8388608
10:49:53.102297,-8388608,-8388608,-8388608,-8388608,567011,-8388608,-8388608,-8388608
10:49:53.102297,-8388608,-8388608,-8388608,-8388608,536157,-8388608,-8388608,-8388608
10:49:53.119971,-8388608,-8388608,-8388608,-8388608,532309,-8388608,-8388608,-8388608
10:49:53.119971,-8388608,-8388608,-8388608,-8388608,558962,-8388608,-8388608,-8388608
10:49:53.128051,-8388608,-8388608,-8388608,-8388608,580858,-8388608,-8388608,-8388608
10:49:53.128051,-8388608,-8388608,-8388608,-8388608,569507,-8388608,-8388608,-8388608
10:49:53.135453,-8388608,-8388608,-8388608,-8388608,534843,-8388608,-8388608,-8388608
10:49:53.139413,-8388608,-8388608,-8388608,-8388608,528391,-8388608,-8388608,-8388608
10:49:53.140542,-8388608,-8388608,-8388608,-8388608,557294,-8388608,-8388608,-8388608
10:49:53.140542,-8388608,-8388608,-8388608,-8388608,583004,-8388608,-8388608,-8388608
10:49:53.152498,-8388608,-8388608,-8388608,-8388608,572793,-8388608,-8388608,-8388608
10:49:53.152498,-8388608,-8388608,-8388608,-8388608,539429,-8388608,-8388608,-8388608
10:49:53.152498,-8388608,-8388608,-8388608,-8388608,529724,-8388608,-8388608,-8388608
10:49:53.152498,-8388608,-8388608,-8388608,-8388608,554245,-8388608,-8388608,-8388608
10:49:53.167827,-8388608,-8388608,-8388608,-8388608,580660,-8388608,-8388608,-8388608
10:49:53.169551,-8388608,-8388608,-8388608,-8388608,571042,-8388608,-8388608,-8388608
10:49:53.169551,-8388608,-8388608,-8388608,-8388608,535375,-8388608,-8388608,-8388608
10:49:53.169551,-8388608,-8388608,-8388608,-8388608,524744,-8388608,-8388608,-8388608
10:49:53.184381,-8388608,-8388608,-8388608,-8388608,554144,-8388608,-8388608,-8388608
10:49:53.185597,-8388608,-8388608,-8388608,-8388608,583316,-8388608,-8388608,-8388608
10:49:53.185597,-8388608,-8388608,-8388608,-8388608,569816,-8388608,-8388608,-8388608
10:49:53.185597,-8388608,-8388608,-8388608,-8388608,533278,-8388608,-8388608,-8388608
10:49:53.200756,-8388608,-8388608,-8388608,-8388608,526666,-8388608,-8388608,-8388608
10:49:53.201529,-8388608,-8388608,-8388608,-8388608,558127,-8388608,-8388608,-8388608
10:49:53.201529,-8388608,-8388608,-8388608,-8388608,582622,-8388608,-8388608,-8388608
10:49:53.201529,-8388608,-8388608,-8388608,-8388608,564129,-8388608,-8388608,-8388608
10:49:53.201529,-8388608,-8388608,-8388608,-8388608,528385,-8388608,-8388608,-8388608
10:49:53.217990,-8388608,-8388608,-8388608,-8388608,527453,-8388608,-8388608,-8388608
10:49:53.217990,-8388608,-8388608,-8388608,-8388608,555199,-8388608,-8388608,-8388608
10:49:53.228010,-8388608,-8388608,-8388608,-8388608,578729,-8388608,-8388608,-8388608
10:49:53.228010,-8388608,-8388608,-8388608,-8388608,564118,-8388608,-8388608,-8388608
10:49:53.235175,-8388608,-8388608,-8388608,-8388608,528744,-8388608,-8388608,-8388608
10:49:53.238676,-8388608,-8388608,-8388608,-8388608,517049,-8388608,-8388608,-8388608
10:49:53.238676,-8388608,-8388608,-8388608,-8388608,546848,-8388608,-8388608,-8388608
10:49:53.238676,-8388608,-8388608,-8388608,-8388608,579358,-8388608,-8388608,-8388608
10:49:53.252062,-8388608,-8388608,-8388608,-8388608,566209,-8388608,-8388608,-8388608
10:49:53.255994,-8388608,-8388608,-8388608,-8388608,529442,-8388608,-8388608,-8388608
10:49:53.257387,-8388608,-8388608,-8388608,-8388608,520538,-8388608,-8388608,-8388608
10:49:53.257387,-8388608,-8388608,-8388608,-8388608,546969,-8388608,-8388608,-8388608
10:49:53.267501,-8388608,-8388608,-8388608,-8388608,568579,-8388608,-8388608,-8388608
10:49:53.271100,-8388608,-8388608,-8388608,-8388608,561926,-8388608,-8388608,-8388608
10:49:53.276323,-8388608,-8388608,-8388608,-8388608,529498,-8388608,-8388608,-8388608
10:49:53.280334,-8388608,-8388608,-8388608,-8388608,520433,-8388608,-8388608,-8388608
10:49:53.284189,-8388608,-8388608,-8388608,-8388608,547626,-8388608,-8388608,-8388608
10:49:53.285659,-8388608,-8388608,-8388608,-8388608,575874,-8388608,-8388608,-8388608
10:49:53.285659,-8388608,-8388608,-8388608,-8388608,567866,-8388608,-8388608,-8388608
10:49:53.285659,-8388608,-8388608,-8388608,-8388608,533136,-8388608,-8388608,-8388608
10:49:53.285659,-8388608,-8388608,-8388608,-8388608,525769,-8388608,-8388608,-8388608
10:49:53.302202,-8388608,-8388608,-8388608,-8388608,549403,-8388608,-8388608,-8388608
10:49:53.302202,-8388608,-8388608,-8388608,-8388608,577051,-8388608,-8388608,-8388608
10:49:53.302202,-8388608,-8388608,-8388608,-8388608,569083,-8388608,-8388608,-8388608
10:49:53.302202,-8388608,-8388608,-8388608,-8388608,534824,-8388608,-8388608,-8388608
10:49:53.319406,-8388608,-8388608,-8388608,-8388608,525947,-8388608,-8388608,-8388608
10:49:53.319406,-8388608,-8388608,-8388608,-8388608,550902,-8388608,-8388608,-8388608
10:49:53.327917,-8388608,-8388608,-8388608,-8388608,580852,-8388608,-8388608,-8388608
10:49:53.327917,-8388608,-8388608,-8388608,-8388608,570376,-8388608,-8388608,-8388608
10:49:53.335789,-8388608,-8388608,-8388608,-8388608,537782,-8388608,-8388608,-8388608
10:49:53.335789,-8388608,-8388608,-8388608,-8388608,523173,-8388608,-8388608,-8388608
10:49:53.335789,-8388608,-8388608,-8388608,-8388608,552838,-8388608,-8388608,-8388608
10:49:53.335789,-8388608,-8388608,-8388608,-8388608,581608,-8388608,-8388608,-8388608
10:49:53.350743,-8388608,-8388608,-8388608,-8388608,573164,-8388608,-8388608,-8388608
10:49:53.354783,-8388608,-8388608,-8388608,-8388608,538573,-8388608,-8388608,-8388608
10:49:53.357667,-8388608,-8388608,-8388608,-8388608,526002,-8388608,-8388608,-8388608
10:49:53.357667,-8388608,-8388608,-8388608,-8388608,552968,-8388608,-8388608,-8388608
10:49:53.368349,-8388608,-8388608,-8388608,-8388608,581598,-8388608,-8388608,-8388608
10:49:53.368803,-8388608,-8388608,-8388608,-8388608,578676,-8388608,-8388608,-8388608
10:49:53.368803,-8388608,-8388608,-8388608,-8388608,544456,-8388608,-8388608,-8388608
10:49:53.368803,-8388608,-8388608,-8388608,-8388608,521965,-8388608,-8388608,-8388608
10:49:53.384240,-8388608,-8388608,-8388608,-8388608,545464,-8388608,-8388608,-8388608
10:49:53.385615,-8388608,-8388608,-8388608,-8388608,578813,-8388608,-8388608,-8388608
10:49:53.385615,-8388608,-8388608,-8388608,-8388608,575596,-8388608,-8388608,-8388608
10:49:53.385615,-8388608,-8388608,-8388608,-8388608,543679,-8388608,-8388608,-8388608
10:49:53.385615,-8388608,-8388608,-8388608,-8388608,525989,-8388608,-8388608,-8388608
10:49:53.402751,-8388608,-8388608,-8388608,-8388608,548769,-8388608,-8388608,-8388608
10:49:53.402751,-8388608,-8388608,-8388608,-8388608,579781,-8388608,-8388608,-8388608
10:49:53.402751,-8388608,-8388608,-8388608,-8388608,573130,-8388608,-8388608,-8388608
10:49:53.402751,-8388608,-8388608,-8388608,-8388608,536231,-8388608,-8388608,-8388608
10:49:53.419429,-8388608,-8388608,-8388608,-8388608,521577,-8388608,-8388608,-8388608
10:49:53.419429,-8388608,-8388608,-8388608,-8388608,545654,-8388608,-8388608,-8388608
10:49:53.427942,-8388608,-8388608,-8388608,-8388608,577651,-8388608,-8388608,-8388608
10:49:53.427942,-8388608,-8388608,-8388608,-8388608,569563,-8388608,-8388608,-8388608
10:49:53.435331,-8388608,-8388608,-8388608,-8388608,533534,-8388608,-8388608,-8388608
10:49:53.435926,-8388608,-8388608,-8388608,-8388608,526057,-8388608,-8388608,-8388608
10:49:53.435926,-8388608,-8388608,-8388608,-8388608,553644,-8388608,-8388608,-8388608
10:49:53.435926,-8388608,-8388608,-8388608,-8388608,581718,-8388608,-8388608,-8388608
10:49:53.451816,-8388608,-8388608,-8388608,-8388608,572918,-8388608,-8388608,-8388608
10:49:53.454894,-8388608,-8388608,-8388608,-8388608,540271,-8388608,-8388608,-8388608
10:49:53.457657,-8388608,-8388608,-8388608,-8388608,531292,-8388608,-8388608,-8388608
10:49:53.457657,-8388608,-8388608,-8388608,-8388608,551694,-8388608,-8388608,-8388608
10:49:53.467428,-8388608,-8388608,-8388608,-8388608,577794,-8388608,-8388608,-8388608
10:49:53.468729,-8388608,-8388608,-8388608,-8388608,571692,-8388608,-8388608,-8388608
10:49:53.474059,-8388608,-8388608,-8388608,-8388608,538900,-8388608,-8388608,-8388608
10:49:53.474059,-8388608,-8388608,-8388608,-8388608,527519,-8388608,-8388608,-8388608
10:49:53.474059,-8388608,-8388608,-8388608,-8388608,550641,-8388608,-8388608,-8388608
10:49:53.487349,-8388608,-8388608,-8388608,-8388608,582201,-8388608,-8388608,-8388608
10:49:53.492028,-8388608,-8388608,-8388608,-8388608,574421,-8388608,-8388608,-8388608
10:49:53.496036,-8388608,-8388608,-8388608,-8388608,536846,-8388608,-8388608,-8388608
10:49:53.499919,-8388608,-8388608,-8388608,-8388608,520112,-8388608,-8388608,-8388608
10:49:53.501819,-8388608,-8388608,-8388608,-8388608,544731,-8388608,-8388608,-8388608
10:49:53.501819,-8388608,-8388608,-8388608,-8388608,579187,-8388608,-8388608,-8388608
10:49:53.501819,-8388608,-8388608,-8388608,-8388608,575923,-8388608,-8388608,-8388608
10:49:53.501819,-8388608,-8388608,-8388608,-8388608,540501,-8388608,-8388608,-8388608
10:49:53.518539,-8388608,-8388608,-8388608,-8388608,526813,-8388608,-8388608,-8388608
10:49:53.518539,-8388608,-8388608,-8388608,-8388608,551921,-8388608,-8388608,-8388608
10:49:53.528094,-8388608,-8388608,-8388608,-8388608,579896,-8388608,-8388608,-8388608
10:49:53.528094,-8388608,-8388608,-8388608,-8388608,569591,-8388608,-8388608,-8388608
10:49:53.535351,-8388608,-8388608,-8388608,-8388608,534874,-8388608,-8388608,-8388608
10:49:53.535351,-8388608,-8388608,-8388608,-8388608,525458,-8388608,-8388608,-8388608
10:49:53.535351,-8388608,-8388608,-8388608,-8388608,551565,-8388608,-8388608,-8388608
10:49:53.535351,-8388608,-8388608,-8388608,-8388608,579599,-8388608,-8388608,-8388608
10:49:53.550800,-8388608,-8388608,-8388608,-8388608,573791,-8388608,-8388608,-8388608
10:49:53.552457,-8388608,-8388608,-8388608,-8388608,537447,-8388608,-8388608,-8388608
10:49:53.552457,-8388608,-8388608,-8388608,-8388608,523597,-8388608,-8388608,-8388608
10:49:53.552457,-8388608,-8388608,-8388608,-8388608,549783,-8388608,-8388608,-8388608
10:49:53.552457,-8388608,-8388608,-8388608,-8388608,583366,-8388608,-8388608,-8388608
10:49:53.570241,-8388608,-8388608,-8388608,-8388608,574188,-8388608,-8388608,-8388608
10:49:53.572014,-8388608,-8388608,-8388608,-8388608,538909,-8388608,-8388608,-8388608
10:49:53.572014,-8388608,-8388608,-8388608,-8388608,525296,-8388608,-8388608,-8388608
10:49:53.572014,-8388608,-8388608,-8388608,-8388608,547736,-8388608,-8388608,-8388608
10:49:53.584448,-8388608,-8388608,-8388608,-8388608,582527,-8388608,-8388608,-8388608
10:49:53.584448,-8388608,-8388608,-8388608,-8388608,573828,-8388608,-8388608,-8388608
10:49:53.584448,-8388608,-8388608,-8388608,-8388608,538861,-8388608,-8388608,-8388608
10:49:53.584448,-8388608,-8388608,-8388608,-8388608,522784,-8388608,-8388608,-8388608
10:49:53.601487,-8388608,-8388608,-8388608,-8388608,547609,-8388608,-8388608,-8388608
10:49:53.601487,-8388608,-8388608,-8388608,-8388608,576501,-8388608,-8388608,-8388608
10:49:53.601487,-8388608,-8388608,-8388608,-8388608,573893,-8388608,-8388608,-8388608
10:49:53.601487,-8388608,-8388608,-8388608,-8388608,537854,-8388608,-8388608,-8388608
10:49:53.618849,-8388608,-8388608,-8388608,-8388608,523852,-8388608,-8388608,-8388608
10:49:53.618849,-8388608,-8388608,-8388608,-8388608,545665,-8388608,-8388608,-8388608
10:49:53.618849,-8388608,-8388608,-8388608,-8388608,578917,-8388608,-8388608,-8388608
10:49:53.628458,-8388608,-8388608,-8388608,-8388608,575000,-8388608,-8388608,-8388608
10:49:53.635454,-8388608,-8388608,-8388608,-8388608,541396,-8388608,-8388608,-8388608
10:49:53.635454,-8388608,-8388608,-8388608,-8388608,526306,-8388608,-8388608,-8388608
10:49:53.635454,-8388608,-8388608,-8388608,-8388608,549626,-8388608,-8388608,-8388608
10:49:53.635454,-8388608,-8388608,-8388608,-8388608,581704,-8388608,-8388608,-8388608
10:49:53.650558,-8388608,-8388608,-8388608,-8388608,576637,-8388608,-8388608,-8388608
10:49:53.652061,-8388608,-8388608,-8388608,-8388608,541124,-8388608,-8388608,-8388608
10:49:53.652061,-8388608,-8388608,-8388608,-8388608,528312,-8388608,-8388608,-8388608
10:49:53.652061,-8388608,-8388608,-8388608,-8388608,552241,-8388608,-8388608,-8388608
10:49:53.667329,-8388608,-8388608,-8388608,-8388608,582268,-8388608,-8388608,-8388608
10:49:53.670341,-8388608,-8388608,-8388608,-8388608,577551,-8388608,-8388608,-8388608
10:49:53.673610,-8388608,-8388608,-8388608,-8388608,540572,-8388608,-8388608,-8388608
10:49:53.673610,-8388608,-8388608,-8388608,-8388608,524053,-8388608,-8388608,-8388608
10:49:53.673610,-8388608,-8388608,-8388608,-8388608,549029,-8388608,-8388608,-8388608
10:49:53.684998,-8388608,-8388608,-8388608,-8388608,579815,-8388608,-8388608,-8388608
10:49:53.690662,-8388608,-8388608,-8388608,-8388608,572357,-8388608,-8388608,-8388608
10:49:53.690662,-8388608,-8388608,-8388608,-8388608,539897,-8388608,-8388608,-8388608
10:49:53.690662,-8388608,-8388608,-8388608,-8388608,534507,-8388608,-8388608,-8388608
10:49:53.702540,-8388608,-8388608,-8388608,-8388608,552554,-8388608,-8388608,-8388608
10:49:53.706669,-8388608,-8388608,-8388608,-8388608,583761,-8388608,-8388608,-8388608
10:49:53.711310,-8388608,-8388608,-8388608,-8388608,582258,-8388608,-8388608,-8388608
10:49:53.715311,-8388608,-8388608,-8388608,-8388608,547497,-8388608,-8388608,-8388608
10:49:53.718039,-8388608,-8388608,-8388608,-8388608,524026,-8388608,-8388608,-8388608
10:49:53.718039,-8388608,-8388608,-8388608,-8388608,538531,-8388608,-8388608,-8388608
10:49:53.718039,-8388608,-8388608,-8388608,-8388608,564708,-8388608,-8388608,-8388608
10:49:53.731045,-8388608,-8388608,-8388608,-8388608,556723,-8388608,-8388608,-8388608
10:49:53.734834,-8388608,-8388608,-8388608,-8388608,518549,-8388608,-8388608,-8388608
10:49:53.734834,-8388608,-8388608,-8388608,-8388608,509097,-8388608,-8388608,-8388608
10:49:53.734834,-8388608,-8388608,-8388608,-8388608,538623,-8388608,-8388608,-8388608
10:49:53.734834,-8388608,-8388608,-8388608,-8388608,576727,-8388608,-8388608,-8388608
10:49:53.751786,-8388608,-8388608,-8388608,-8388608,581981,-8388608,-8388608,-8388608
10:49:53.751786,-8388608,-8388608,-8388608,-8388608,548621,-8388608,-8388608,-8388608
10:49:53.751786,-8388608,-8388608,-8388608,-8388608,527998,-8388608,-8388608,-8388608
10:49:53.751786,-8388608,-8388608,-8388608,-8388608,550834,-8388608,-8388608,-8388608
10:49:53.767313,-8388608,-8388608,-8388608,-8388608,581727,-8388608,-8388608,-8388608
10:49:53.769043,-8388608,-8388608,-8388608,-8388608,577582,-8388608,-8388608,-8388608
10:49:53.769043,-8388608,-8388608,-8388608,-8388608,544054,-8388608,-8388608,-8388608
10:49:53.769043,-8388608,-8388608,-8388608,-8388608,529031,-8388608,-8388608,-8388608
10:49:53.769043,-8388608,-8388608,-8388608,-8388608,549561,-8388608,-8388608,-8388608
10:49:53.786912,-8388608,-8388608,-8388608,-8388608,581716,-8388608,-8388608,-8388608
10:49:53.790598,-8388608,-8388608,-8388608,-8388608,580135,-8388608,-8388608,-8388608
10:49:53.792035,-8388608,-8388608,-8388608,-8388608,546228,-8388608,-8388608,-8388608
10:49:53.802162,-8388608,-8388608,-8388608,-8388608,528444,-8388608,-8388608,-8388608
10:49:53.802162,-8388608,-8388608,-8388608,-8388608,548315,-8388608,-8388608,-8388608
10:49:53.802162,-8388608,-8388608,-8388608,-8388608,580007,-8388608,-8388608,-8388608
10:49:53.802162,-8388608,-8388608,-8388608,-8388608,576487,-8388608,-8388608,-8388608
10:49:53.802162,-8388608,-8388608,-8388608,-8388608,539816,-8388608,-8388608,-8388608
10:49:53.817673,-8388608,-8388608,-8388608,-8388608,526128,-8388608,-8388608,-8388608
10:49:53.820604,-8388608,-8388608,-8388608,-8388608,550544,-8388608,-8388608,-8388608
10:49:53.820604,-8388608,-8388608,-8388608,-8388608,580696,-8388608,-8388608,-8388608
10:49:53.828632,-8388608,-8388608,-8388608,-8388608,577625,-8388608,-8388608,-8388608
10:49:53.834954,-8388608,-8388608,-8388608,-8388608,547921,-8388608,-8388608,-8388608
10:49:53.834954,-8388608,-8388608,-8388608,-8388608,531130,-8388608,-8388608,-8388608
10:49:53.834954,-8388608,-8388608,-8388608,-8388608,546953,-8388608,-8388608,-8388608
10:49:53.834954,-8388608,-8388608,-8388608,-8388608,578818,-8388608,-8388608,-8388608
10:49:53.850863,-8388608,-8388608,-8388608,-8388608,581328,-8388608,-8388608,-8388608
10:49:53.851956,-8388608,-8388608,-8388608,-8388608,548318,-8388608,-8388608,-8388608
10:49:53.851956,-8388608,-8388608,-8388608,-8388608,526527,-8388608,-8388608,-8388608
10:49:53.851956,-8388608,-8388608,-8388608,-8388608,545812,-8388608,-8388608,-8388608
10:49:53.851956,-8388608,-8388608,-8388608,-8388608,579512,-8388608,-8388608,-8388608
10:49:53.867905,-8388608,-8388608,-8388608,-8388608,579619,-8388608,-8388608,-8388608
10:49:53.867905,-8388608,-8388608,-8388608,-8388608,544319,-8388608,-8388608,-8388608
10:49:53.867905,-8388608,-8388608,-8388608,-8388608,525287,-8388608,-8388608,-8388608
10:49:53.883615,-8388608,-8388608,-8388608,-8388608,550628,-8388608,-8388608,-8388608
10:49:53.886705,-8388608,-8388608,-8388608,-8388608,580723,-8388608,-8388608,-8388608
10:49:53.889757,-8388608,-8388608,-8388608,-8388608,576809,-8388608,-8388608,-8388608
10:49:53.891172,-8388608,-8388608,-8388608,-8388608,548417,-8388608,-8388608,-8388608
10:49:53.891172,-8388608,-8388608,-8388608,-8388608,530241,-8388608,-8388608,-8388608
10:49:53.901518,-8388608,-8388608,-8388608,-8388608,548376,-8388608,-8388608,-8388608
10:49:53.906488,-8388608,-8388608,-8388608,-8388608,576900,-8388608,-8388608,-8388608
10:49:53.906488,-8388608,-8388608,-8388608,-8388608,580191,-8388608,-8388608,-8388608
10:49:53.906488,-8388608,-8388608,-8388608,-8388608,549601,-8388608,-8388608,-8388608
10:49:53.919134,-8388608,-8388608,-8388608,-8388608,530624,-8388608,-8388608,-8388608
10:49:53.922998,-8388608,-8388608,-8388608,-8388608,549850,-8388608,-8388608,-8388608
10:49:53.927250,-8388608,-8388608,-8388608,-8388608,580710,-8388608,-8388608,-8388608
10:49:53.931282,-8388608,-8388608,-8388608,-8388608,579899,-8388608,-8388608,-8388608
10:49:53.933525,-8388608,-8388608,-8388608,-8388608,547556,-8388608,-8388608,-8388608
10:49:53.934953,-8388608,-8388608,-8388608,-8388608,531725,-8388608,-8388608,-8388608
10:49:53.934953,-8388608,-8388608,-8388608,-8388608,545834,-8388608,-8388608,-8388608
10:49:53.934953,-8388608,-8388608,-8388608,-8388608,573774,-8388608,-8388608,-8388608
10:49:53.950501,-8388608,-8388608,-8388608,-8388608,575023,-8388608,-8388608,-8388608
10:49:53.952294,-8388608,-8388608,-8388608,-8388608,542628,-8388608,-8388608,-8388608
10:49:53.952294,-8388608,-8388608,-8388608,-8388608,525857,-8388608,-8388608,-8388608
10:49:53.952294,-8388608,-8388608,-8388608,-8388608,543443,-8388608,-8388608,-8388608
10:49:53.952294,-8388608,-8388608,-8388608,-8388608,576333,-8388608,-8388608,-8388608
10:49:53.968670,-8388608,-8388608,-8388608,-8388608,574278,-8388608,-8388608,-8388608
10:49:53.968670,-8388608,-8388608,-8388608,-8388608,543266,-8388608,-8388608,-8388608
10:49:53.968670,-8388608,-8388608,-8388608,-8388608,526074,-8388608,-8388608,-8388608
10:49:53.968670,-8388608,-8388608,-8388608,-8388608,541001,-8388608,-8388608,-8388608
10:49:53.986191,-8388608,-8388608,-8388608,-8388608,573346,-8388608,-8388608,-8388608
10:49:53.986191,-8388608,-8388608,-8388608,-8388608,578642,-8388608,-8388608,-8388608
10:49:53.986191,-8388608,-8388608,-8388608,-8388608,549759,-8388608,-8388608,-8388608
10:49:53.986191,-8388608,-8388608,-8388608,-8388608,526424,-8388608,-8388608,-8388608
10:49:54.003313,-8388608,-8388608,-8388608,-8388608,542107,-8388608,-8388608,-8388608
10:49:54.006291,-8388608,-8388608,-8388608,-8388608,573916,-8388608,-8388608,-8388608
10:49:54.006291,-8388608,-8388608,-8388608,-8388608,582488,-8388608,-8388608,-8388608
10:49:54.006291,-8388608,-8388608,-8388608,-8388608,552485,-8388608,-8388608,-8388608
10:49:54.017841,-8388608,-8388608,-8388608,-8388608,533989,-8388608,-8388608,-8388608
10:49:54.017841,-8388608,-8388608,-8388608,-8388608,551356,-8388608,-8388608,-8388608
10:49:54.017841,-8388608,-8388608,-8388608,-8388608,584460,-8388608,-8388608,-8388608
10:49:54.029002,-8388608,-8388608,-8388608,-8388608,584948,-8388608,-8388608,-8388608
10:49:54.034968,-8388608,-8388608,-8388608,-8388608,550686,-8388608,-8388608,-8388608
10:49:54.034968,-8388608,-8388608,-8388608,-8388608,534187,-8388608,-8388608,-8388608
10:49:54.034968,-8388608,-8388608,-8388608,-8388608,551763,-8388608,-8388608,-8388608
10:49:54.034968,-8388608,-8388608,-8388608,-8388608,585736,-8388608,-8388608,-8388608
10:49:54.050161,-8388608,-8388608,-8388608,-8388608,589286,-8388608,-8388608,-8388608
10:49:54.051241,-8388608,-8388608,-8388608,-8388608,555353,-8388608,-8388608,-8388608
10:49:54.051241,-8388608,-8388608,-8388608,-8388608,535531,-8388608,-8388608,-8388608
10:49:54.051241,-8388608,-8388608,-8388608,-8388608,552203,-8388608,-8388608,-8388608
10:49:54.066813,-8388608,-8388608,-8388608,-8388608,583936,-8388608,-8388608,-8388608
10:49:54.067968,-8388608,-8388608,-8388608,-8388608,588657,-8388608,-8388608,-8388608
10:49:54.067968,-8388608,-8388608,-8388608,-8388608,555968,-8388608,-8388608,-8388608
10:49:54.067968,-8388608,-8388608,-8388608,-8388608,536827,-8388608,-8388608,-8388608
10:49:54.067968,-8388608,-8388608,-8388608,-8388608,554455,-8388608,-8388608,-8388608
10:49:54.085562,-8388608,-8388608,-8388608,-8388608,584048,-8388608,-8388608,-8388608
10:49:54.085562,-8388608,-8388608,-8388608,-8388608,584082,-8388608,-8388608,-8388608
10:49:54.085562,-8388608,-8388608,-8388608,-8388608,554733,-8388608,-8388608,-8388608
10:49:54.085562,-8388608,-8388608,-8388608,-8388608,535603,-8388608,-8388608,-8388608
10:49:54.102280,-8388608,-8388608,-8388608,-8388608,550324,-8388608,-8388608,-8388608
10:49:54.106197,-8388608,-8388608,-8388608,-8388608,581983,-8388608,-8388608,-8388608
10:49:54.110054,-8388608,-8388608,-8388608,-8388608,585015,-8388608,-8388608,-8388608
10:49:54.110861,-8388608,-8388608,-8388608,-8388608,555421,-8388608,-8388608,-8388608
10:49:54.118953,-8388608,-8388608,-8388608,-8388608,535232,-8388608,-8388608,-8388608
10:49:54.122538,-8388608,-8388608,-8388608,-8388608,550107,-8388608,-8388608,-8388608
10:49:54.126482,-8388608,-8388608,-8388608,-8388608,584465,-8388608,-8388608,-8388608
10:49:54.130580,-8388608,-8388608,-8388608,-8388608,589326,-8388608,-8388608,-8388608
10:49:54.134412,-8388608,-8388608,-8388608,-8388608,559366,-8388608,-8388608,-8388608
10:49:54.134412,-8388608,-8388608,-8388608,-8388608,539708,-8388608,-8388608,-8388608
10:49:54.134412,-8388608,-8388608,-8388608,-8388608,553492,-8388608,-8388608,-8388608
10:49:54.134412,-8388608,-8388608,-8388608,-8388608,585176,-8388608,-8388608,-8388608
10:49:54.151302,-8388608,-8388608,-8388608,-8388608,586022,-8388608,-8388608,-8388608
10:49:54.151302,-8388608,-8388608,-8388608,-8388608,559354,-8388608,-8388608,-8388608
10:49:54.151302,-8388608,-8388608,-8388608,-8388608,540191,-8388608,-8388608,-8388608
10:49:54.151302,-8388608,-8388608,-8388608,-8388608,556586,-8388608,-8388608,-8388608
10:49:54.166925,-8388608,-8388608,-8388608,-8388608,588784,-8388608,-8388608,-8388608
10:49:54.168315,-8388608,-8388608,-8388608,-8388608,586839,-8388608,-8388608,-8388608
10:49:54.168315,-8388608,-8388608,-8388608,-8388608,549349,-8388608,-8388608,-8388608
10:49:54.168315,-8388608,-8388608,-8388608,-8388608,532959,-8388608,-8388608,-8388608
10:49:54.168315,-8388608,-8388608,-8388608,-8388608,554988,-8388608,-8388608,-8388608
10:49:54.185246,-8388608,-8388608,-8388608,-8388608,586601,-8388608,-8388608,-8388608
10:49:54.185246,-8388608,-8388608,-8388608,-8388608,588371,-8388608,-8388608,-8388608
10:49:54.185246,-8388608,-8388608,-8388608,-8388608,559384,-8388608,-8388608,-8388608
10:49:54.185246,-8388608,-8388608,-8388608,-8388608,541647,-8388608,-8388608,-8388608
10:49:54.201842,-8388608,-8388608,-8388608,-8388608,555116,-8388608,-8388608,-8388608
10:49:54.201842,-8388608,-8388608,-8388608,-8388608,584496,-8388608,-8388608,-8388608
10:49:54.201842,-8388608,-8388608,-8388608,-8388608,588240,-8388608,-8388608,-8388608
10:49:54.201842,-8388608,-8388608,-8388608,-8388608,560488,-8388608,-8388608,-8388608
10:49:54.218090,-8388608,-8388608,-8388608,-8388608,541679,-8388608,-8388608,-8388608
10:49:54.222146,-8388608,-8388608,-8388608,-8388608,554736,-8388608,-8388608,-8388608
10:49:54.224528,-8388608,-8388608,-8388608,-8388608,583633,-8388608,-8388608,-8388608
10:49:54.229634,-8388608,-8388608,-8388608,-8388608,587499,-8388608,-8388608,-8388608
10:49:54.229634,-8388608,-8388608,-8388608,-8388608,555716,-8388608,-8388608,-8388608
10:49:54.235017,-8388608,-8388608,-8388608,-8388608,538337,-8388608,-8388608,-8388608
10:49:54.235017,-8388608,-8388608,-8388608,-8388608,552633,-8388608,-8388608,-8388608
10:49:54.243978,-8388608,-8388608,-8388608,-8388608,586376,-8388608,-8388608,-8388608
10:49:54.250594,-8388608,-8388608,-8388608,-8388608,591063,-8388608,-8388608,-8388608
10:49:54.251115,-8388608,-8388608,-8388608,-8388608,558371,-8388608,-8388608,-8388608
10:49:54.251115,-8388608,-8388608,-8388608,-8388608,537923,-8388608,-8388608,-8388608
10:49:54.251115,-8388608,-8388608,-8388608,-8388608,552803,-8388608,-8388608,-8388608
10:49:54.266474,-8388608,-8388608,-8388608,-8388608,585124,-8388608,-8388608,-8388608
10:49:54.267618,-8388608,-8388608,-8388608,-8388608,589169,-8388608,-8388608,-8388608
10:49:54.267618,-8388608,-8388608,-8388608,-8388608,561085,-8388608,-8388608,-8388608
10:49:54.267618,-8388608,-8388608,-8388608,-8388608,538146,-8388608,-8388608,-8388608
10:49:54.267618,-8388608,-8388608,-8388608,-8388608,549230,-8388608,-8388608,-8388608
10:49:54.284880,-8388608,-8388608,-8388608,-8388608,584753,-8388608,-8388608,-8388608
10:49:54.284880,-8388608,-8388608,-8388608,-8388608,586961,-8388608,-8388608,-8388608
10:49:54.284880,-8388608,-8388608,-8388608,-8388608,560444,-8388608,-8388608,-8388608
10:49:54.284880,-8388608,-8388608,-8388608,-8388608,544759,-8388608,-8388608,-8388608
10:49:54.301609,-8388608,-8388608,-8388608,-8388608,555744,-8388608,-8388608,-8388608
10:49:54.306304,-8388608,-8388608,-8388608,-8388608,581321,-8388608,-8388608,-8388608
10:49:54.306304,-8388608,-8388608,-8388608,-8388608,582526,-8388608,-8388608,-8388608
10:49:54.306304,-8388608,-8388608,-8388608,-8388608,554921,-8388608,-8388608,-8388608
10:49:54.317803,-8388608,-8388608,-8388608,-8388608,534232,-8388608,-8388608,-8388608
10:49:54.323799,-8388608,-8388608,-8388608,-8388608,550839,-8388608,-8388608,-8388608
10:49:54.326776,-8388608,-8388608,-8388608,-8388608,582748,-8388608,-8388608,-8388608
10:49:54.331760,-8388608,-8388608,-8388608,-8388608,589621,-8388608,-8388608,-8388608
10:49:54.334075,-8388608,-8388608,-8388608,-8388608,562568,-8388608,-8388608,-8388608
10:49:54.334075,-8388608,-8388608,-8388608,-8388608,539651,-8388608,-8388608,-8388608
10:49:54.334075,-8388608,-8388608,-8388608,-8388608,552251,-8388608,-8388608,-8388608
10:49:54.334075,-8388608,-8388608,-8388608,-8388608,587299,-8388608,-8388608,-8388608
10:49:54.349698,-8388608,-8388608,-8388608,-8388608,595114,-8388608,-8388608,-8388608
10:49:54.351536,-8388608,-8388608,-8388608,-8388608,564827,-8388608,-8388608,-8388608
10:49:54.351536,-8388608,-8388608,-8388608,-8388608,539604,-8388608,-8388608,-8388608
10:49:54.351536,-8388608,-8388608,-8388608,-8388608,554497,-8388608,-8388608,-8388608
10:49:54.351536,-8388608,-8388608,-8388608,-8388608,586559,-8388608,-8388608,-8388608
10:49:54.368111,-8388608,-8388608,-8388608,-8388608,593800,-8388608,-8388608,-8388608
10:49:54.368111,-8388608,-8388608,-8388608,-8388608,567433,-8388608,-8388608,-8388608
10:49:54.368111,-8388608,-8388608,-8388608,-8388608,544841,-8388608,-8388608,-8388608
10:49:54.368111,-8388608,-8388608,-8388608,-8388608,558107,-8388608,-8388608,-8388608
10:49:54.383924,-8388608,-8388608,-8388608,-8388608,589623,-8388608,-8388608,-8388608
10:49:54.383924,-8388608,-8388608,-8388608,-8388608,592218,-8388608,-8388608,-8388608
10:49:54.383924,-8388608,-8388608,-8388608,-8388608,566364,-8388608,-8388608,-8388608
10:49:54.397677,-8388608,-8388608,-8388608,-8388608,544546,-8388608,-8388608,-8388608
10:49:54.400802,-8388608,-8388608,-8388608,-8388608,557559,-8388608,-8388608,-8388608
10:49:54.400802,-8388608,-8388608,-8388608,-8388608,587615,-8388608,-8388608,-8388608
10:49:54.400802,-8388608,-8388608,-8388608,-8388608,592796,-8388608,-8388608,-8388608
10:49:54.400802,-8388608,-8388608,-8388608,-8388608,566261,-8388608,-8388608,-8388608
10:49:54.417451,-8388608,-8388608,-8388608,-8388608,542471,-8388608,-8388608,-8388608
10:49:54.421365,-8388608,-8388608,-8388608,-8388608,550241,-8388608,-8388608,-8388608
10:49:54.423159,-8388608,-8388608,-8388608,-8388608,573821,-8388608,-8388608,-8388608
10:49:54.429745,-8388608,-8388608,-8388608,-8388608,578314,-8388608,-8388608,-8388608
10:49:54.433126,-8388608,-8388608,-8388608,-8388608,546462,-8388608,-8388608,-8388608
10:49:54.434542,-8388608,-8388608,-8388608,-8388608,523151,-8388608,-8388608,-8388608
10:49:54.434542,-8388608,-8388608,-8388608,-8388608,533346,-8388608,-8388608,-8388608
10:49:54.434542,-8388608,-8388608,-8388608,-8388608,571221,-8388608,-8388608,-8388608
10:49:54.449780,-8388608,-8388608,-8388608,-8388608,587952,-8388608,-8388608,-8388608
10:49:54.450897,-8388608,-8388608,-8388608,-8388608,567179,-8388608,-8388608,-8388608
10:49:54.450897,-8388608,-8388608,-8388608,-8388608,545346,-8388608,-8388608,-8388608
10:49:54.450897,-8388608,-8388608,-8388608,-8388608,556092,-8388608,-8388608,-8388608
10:49:54.450897,-8388608,-8388608,-8388608,-8388608,590151,-8388608,-8388608,-8388608
10:49:54.467621,-8388608,-8388608,-8388608,-8388608,596569,-8388608,-8388608,-8388608
10:49:54.467621,-8388608,-8388608,-8388608,-8388608,568323,-8388608,-8388608,-8388608
10:49:54.467621,-8388608,-8388608,-8388608,-8388608,541850,-8388608,-8388608,-8388608
10:49:54.467621,-8388608,-8388608,-8388608,-8388608,547641,-8388608,-8388608,-8388608
10:49:54.484452,-8388608,-8388608,-8388608,-8388608,580791,-8388608,-8388608,-8388608
10:49:54.484452,-8388608,-8388608,-8388608,-8388608,592421,-8388608,-8388608,-8388608
10:49:54.484452,-8388608,-8388608,-8388608,-8388608,571168,-8388608,-8388608,-8388608
10:49:54.484452,-8388608,-8388608,-8388608,-8388608,545151,-8388608,-8388608,-8388608
10:49:54.501178,-8388608,-8388608,-8388608,-8388608,554582,-8388608,-8388608,-8388608
10:49:54.501178,-8388608,-8388608,-8388608,-8388608,583556,-8388608,-8388608,-8388608
10:49:54.501178,-8388608,-8388608,-8388608,-8388608,594553,-8388608,-8388608,-8388608
10:49:54.501178,-8388608,-8388608,-8388608,-8388608,570033,-8388608,-8388608,-8388608
10:49:54.517775,-8388608,-8388608,-8388608,-8388608,544420,-8388608,-8388608,-8388608
10:49:54.521829,-8388608,-8388608,-8388608,-8388608,553774,-8388608,-8388608,-8388608
10:49:54.522901,-8388608,-8388608,-8388608,-8388608,589311,-8388608,-8388608,-8388608
10:49:54.522901,-8388608,-8388608,-8388608,-8388608,595400,-8388608,-8388608,-8388608
10:49:54.530005,-8388608,-8388608,-8388608,-8388608,567361,-8388608,-8388608,-8388608
10:49:54.538000,-8388608,-8388608,-8388608,-8388608,543926,-8388608,-8388608,-8388608
10:49:54.542198,-8388608,-8388608,-8388608,-8388608,551050,-8388608,-8388608,-8388608
10:49:54.546206,-8388608,-8388608,-8388608,-8388608,582950,-8388608,-8388608,-8388608
10:49:54.550006,-8388608,-8388608,-8388608,-8388608,591456,-8388608,-8388608,-8388608
10:49:54.551013,-8388608,-8388608,-8388608,-8388608,564084,-8388608,-8388608,-8388608
10:49:54.551013,-8388608,-8388608,-8388608,-8388608,543888,-8388608,-8388608,-8388608
10:49:54.551013,-8388608,-8388608,-8388608,-8388608,556391,-8388608,-8388608,-8388608
10:49:54.551013,-8388608,-8388608,-8388608,-8388608,585842,-8388608,-8388608,-8388608
10:49:54.567627,-8388608,-8388608,-8388608,-8388608,592844,-8388608,-8388608,-8388608
10:49:54.567627,-8388608,-8388608,-8388608,-8388608,568759,-8388608,-8388608,-8388608
10:49:54.567627,-8388608,-8388608,-8388608,-8388608,548457,-8388608,-8388608,-8388608
10:49:54.567627,-8388608,-8388608,-8388608,-8388608,555754,-8388608,-8388608,-8388608
10:49:54.584621,-8388608,-8388608,-8388608,-8388608,583041,-8388608,-8388608,-8388608
10:49:54.584621,-8388608,-8388608,-8388608,-8388608,592918,-8388608,-8388608,-8388608
10:49:54.584621,-8388608,-8388608,-8388608,-8388608,569529,-8388608,-8388608,-8388608
10:49:54.584621,-8388608,-8388608,-8388608,-8388608,545299,-8388608,-8388608,-8388608
10:49:54.601663,-8388608,-8388608,-8388608,-8388608,554488,-8388608,-8388608,-8388608
10:49:54.601663,-8388608,-8388608,-8388608,-8388608,583333,-8388608,-8388608,-8388608
10:49:54.601663,-8388608,-8388608,-8388608,-8388608,595215,-8388608,-8388608,-8388608
10:49:54.601663,-8388608,-8388608,-8388608,-8388608,568994,-8388608,-8388608,-8388608
10:49:54.617516,-8388608,-8388608,-8388608,-8388608,541673,-8388608,-8388608,-8388608
10:49:54.617516,-8388608,-8388608,-8388608,-8388608,550617,-8388608,-8388608,-8388608
10:49:54.617516,-8388608,-8388608,-8388608,-8388608,585593,-8388608,-8388608,-8388608
10:49:54.630110,-8388608,-8388608,-8388608,-8388608,589189,-8388608,-8388608,-8388608
10:49:54.632994,-8388608,-8388608,-8388608,-8388608,559946,-8388608,-8388608,-8388608
10:49:54.638084,-8388608,-8388608,-8388608,-8388608,539561,-8388608,-8388608,-8388608
10:49:54.640648,-8388608,-8388608,-8388608,-8388608,553246,-8388608,-8388608,-8388608
10:49:54.640648,-8388608,-8388608,-8388608,-8388608,584146,-8388608,-8388608,-8388608
10:49:54.650701,-8388608,-8388608,-8388608,-8388608,591682,-8388608,-8388608,-8388608
10:49:54.650701,-8388608,-8388608,-8388608,-8388608,565928,-8388608,-8388608,-8388608
10:49:54.650701,-8388608,-8388608,-8388608,-8388608,536851,-8388608,-8388608,-8388608
10:49:54.650701,-8388608,-8388608,-8388608,-8388608,547593,-8388608,-8388608,-8388608
10:49:54.650701,-8388608,-8388608,-8388608,-8388608,578586,-8388608,-8388608,-8388608
10:49:54.667582,-8388608,-8388608,-8388608,-8388608,584214,-8388608,-8388608,-8388608
10:49:54.667582,-8388608,-8388608,-8388608,-8388608,567145,-8388608,-8388608,-8388608
10:49:54.667582,-8388608,-8388608,-8388608,-8388608,542039,-8388608,-8388608,-8388608
10:49:54.667582,-8388608,-8388608,-8388608,-8388608,547113,-8388608,-8388608,-8388608
10:49:54.684598,-8388608,-8388608,-8388608,-8388608,579434,-8388608,-8388608,-8388608
10:49:54.684598,-8388608,-8388608,-8388608,-8388608,589504,-8388608,-8388608,-8388608
10:49:54.684598,-8388608,-8388608,-8388608,-8388608,563266,-8388608,-8388608,-8388608
10:49:54.684598,-8388608,-8388608,-8388608,-8388608,538771,-8388608,-8388608,-8388608
10:49:54.701249,-8388608,-8388608,-8388608,-8388608,548130,-8388608,-8388608,-8388608
10:49:54.701249,-8388608,-8388608,-8388608,-8388608,584529,-8388608,-8388608,-8388608
10:49:54.701249,-8388608,-8388608,-8388608,-8388608,594898,-8388608,-8388608,-8388608
10:49:54.701249,-8388608,-8388608,-8388608,-8388608,569607,-8388608,-8388608,-8388608
10:49:54.717343,-8388608,-8388608,-8388608,-8388608,543734,-8388608,-8388608,-8388608
10:49:54.721913,-8388608,-8388608,-8388608,-8388608,558947,-8388608,-8388608,-8388608
10:49:54.725120,-8388608,-8388608,-8388608,-8388608,595066,-8388608,-8388608,-8388608
10:49:54.730128,-8388608,-8388608,-8388608,-8388608,600241,-8388608,-8388608,-8388608
10:49:54.734912,-8388608,-8388608,-8388608,-8388608,574163,-8388608,-8388608,-8388608
10:49:54.739398,-8388608,-8388608,-8388608,-8388608,548024,-8388608,-8388608,-8388608
10:49:54.743429,-8388608,-8388608,-8388608,-8388608,555469,-8388608,-8388608,-8388608
10:49:54.746582,-8388608,-8388608,-8388608,-8388608,587662,-8388608,-8388608,-8388608
10:49:54.750083,-8388608,-8388608,-8388608,-8388608,598573,-8388608,-8388608,-8388608
10:49:54.750844,-8388608,-8388608,-8388608,-8388608,574436,-8388608,-8388608,-8388608
10:49:54.750844,-8388608,-8388608,-8388608,-8388608,549993,-8388608,-8388608,-8388608
10:49:54.750844,-8388608,-8388608,-8388608,-8388608,558013,-8388608,-8388608,-8388608
10:49:54.766164,-8388608,-8388608,-8388608,-8388608,589535,-8388608,-8388608,-8388608
10:49:54.767289,-8388608,-8388608,-8388608,-8388608,600255,-8388608,-8388608,-8388608
10:49:54.767289,-8388608,-8388608,-8388608,-8388608,576728,-8388608,-8388608,-8388608
10:49:54.767289,-8388608,-8388608,-8388608,-8388608,549634,-8388608,-8388608,-8388608
10:49:54.767289,-8388608,-8388608,-8388608,-8388608,555448,-8388608,-8388608,-8388608
10:49:54.784100,-8388608,-8388608,-8388608,-8388608,586650,-8388608,-8388608,-8388608
10:49:54.784100,-8388608,-8388608,-8388608,-8388608,599936,-8388608,-8388608,-8388608
10:49:54.784100,-8388608,-8388608,-8388608,-8388608,575847,-8388608,-8388608,-8388608
10:49:54.784100,-8388608,-8388608,-8388608,-8388608,547821,-8388608,-8388608,-8388608
10:49:54.799751,-8388608,-8388608,-8388608,-8388608,555341,-8388608,-8388608,-8388608
10:49:54.801163,-8388608,-8388608,-8388608,-8388608,589203,-8388608,-8388608,-8388608
10:49:54.801163,-8388608,-8388608,-8388608,-8388608,597523,-8388608,-8388608,-8388608
10:49:54.801163,-8388608,-8388608,-8388608,-8388608,577411,-8388608,-8388608,-8388608
10:49:54.818200,-8388608,-8388608,-8388608,-8388608,554514,-8388608,-8388608,-8388608
10:49:54.818200,-8388608,-8388608,-8388608,-8388608,561069,-8388608,-8388608,-8388608
10:49:54.818200,-8388608,-8388608,-8388608,-8388608,592774,-8388608,-8388608,-8388608
10:49:54.818200,-8388608,-8388608,-8388608,-8388608,604576,-8388608,-8388608,-8388608
10:49:54.832723,-8388608,-8388608,-8388608,-8388608,579286,-8388608,-8388608,-8388608
10:49:54.834133,-8388608,-8388608,-8388608,-8388608,550851,-8388608,-8388608,-8388608
10:49:54.834133,-8388608,-8388608,-8388608,-8388608,557326,-8388608,-8388608,-8388608
10:49:54.834133,-8388608,-8388608,-8388608,-8388608,591763,-8388608,-8388608,-8388608
10:49:54.849756,-8388608,-8388608,-8388608,-8388608,602519,-8388608,-8388608,-8388608
10:49:54.853174,-8388608,-8388608,-8388608,-8388608,578984,-8388608,-8388608,-8388608
10:49:54.856618,-8388608,-8388608,-8388608,-8388608,551236,-8388608,-8388608,-8388608
10:49:54.857042,-8388608,-8388608,-8388608,-8388608,561454,-8388608,-8388608,-8388608
10:49:54.857042,-8388608,-8388608,-8388608,-8388608,592448,-8388608,-8388608,-8388608
10:49:54.867104,-8388608,-8388608,-8388608,-8388608,599889,-8388608,-8388608,-8388608
10:49:54.867104,-8388608,-8388608,-8388608,-8388608,577783,-8388608,-8388608,-8388608
10:49:54.867104,-8388608,-8388608,-8388608,-8388608,553272,-8388608,-8388608,-8388608
10:49:54.867104,-8388608,-8388608,-8388608,-8388608,556931,-8388608,-8388608,-8388608
10:49:54.884071,-8388608,-8388608,-8388608,-8388608,586213,-8388608,-8388608,-8388608
10:49:54.884071,-8388608,-8388608,-8388608,-8388608,602433,-8388608,-8388608,-8388608
10:49:54.884071,-8388608,-8388608,-8388608,-8388608,582363,-8388608,-8388608,-8388608
10:49:54.884071,-8388608,-8388608,-8388608,-8388608,554309,-8388608,-8388608,-8388608
10:49:54.901213,-8388608,-8388608,-8388608,-8388608,559178,-8388608,-8388608,-8388608
10:49:54.901213,-8388608,-8388608,-8388608,-8388608,592286,-8388608,-8388608,-8388608
10:49:54.901213,-8388608,-8388608,-8388608,-8388608,604464,-8388608,-8388608,-8388608
10:49:54.901213,-8388608,-8388608,-8388608,-8388608,582199,-8388608,-8388608,-8388608
10:49:54.916292,-8388608,-8388608,-8388608,-8388608,554948,-8388608,-8388608,-8388608
10:49:54.917494,-8388608,-8388608,-8388608,-8388608,554519,-8388608,-8388608,-8388608
10:49:54.917494,-8388608,-8388608,-8388608,-8388608,592618,-8388608,-8388608,-8388608
10:49:54.917494,-8388608,-8388608,-8388608,-8388608,604136,-8388608,-8388608,-8388608
10:49:54.930558,-8388608,-8388608,-8388608,-8388608,585588,-8388608,-8388608,-8388608
10:49:54.934491,-8388608,-8388608,-8388608,-8388608,559798,-8388608,-8388608,-8388608
10:49:54.939040,-8388608,-8388608,-8388608,-8388608,560944,-8388608,-8388608,-8388608
10:49:54.939040,-8388608,-8388608,-8388608,-8388608,591954,-8388608,-8388608,-8388608
10:49:54.939040,-8388608,-8388608,-8388608,-8388608,603065,-8388608,-8388608,-8388608
10:49:54.953138,-8388608,-8388608,-8388608,-8388608,577600,-8388608,-8388608,-8388608
10:49:54.957982,-8388608,-8388608,-8388608,-8388608,552192,-8388608,-8388608,-8388608
10:49:54.960865,-8388608,-8388608,-8388608,-8388608,557474,-8388608,-8388608,-8388608
10:49:54.964871,-8388608,-8388608,-8388608,-8388608,590299,-8388608,-8388608,-8388608
10:49:54.967481,-8388608,-8388608,-8388608,-8388608,603000,-8388608,-8388608,-8388608
10:49:54.967481,-8388608,-8388608,-8388608,-8388608,583883,-8388608,-8388608,-8388608
10:49:54.967481,-8388608,-8388608,-8388608,-8388608,557589,-8388608,-8388608,-8388608
10:49:54.967481,-8388608,-8388608,-8388608,-8388608,560252,-8388608,-8388608,-8388608
10:49:54.984065,-8388608,-8388608,-8388608,-8388608,586070,-8388608,-8388608,-8388608
10:49:54.984065,-8388608,-8388608,-8388608,-8388608,599839,-8388608,-8388608,-8388608
10:49:54.984065,-8388608,-8388608,-8388608,-8388608,579026,-8388608,-8388608,-8388608
10:49:54.984065,-8388608,-8388608,-8388608,-8388608,552498,-8388608,-8388608,-8388608
10:49:55.000884,-8388608,-8388608,-8388608,-8388608,556604,-8388608,-8388608,-8388608
10:49:55.001373,-8388608,-8388608,-8388608,-8388608,591046,-8388608,-8388608,-8388608
10:49:55.001373,-8388608,-8388608,-8388608,-8388608,607933,-8388608,-8388608,-8388608
10:49:55.001373,-8388608,-8388608,-8388608,-8388608,580144,-8388608,-8388608,-8388608
10:49:55.016133,-8388608,-8388608,-8388608,-8388608,552688,-8388608,-8388608,-8388608
10:49:55.017564,-8388608,-8388608,-8388608,-8388608,558298,-8388608,-8388608,-8388608
10:49:55.017564,-8388608,-8388608,-8388608,-8388608,588911,-8388608,-8388608,-8388608
10:49:55.017564,-8388608,-8388608,-8388608,-8388608,601909,-8388608,-8388608,-8388608
10:49:55.032790,-8388608,-8388608,-8388608,-8388608,578400,-8388608,-8388608,-8388608
10:49:55.034399,-8388608,-8388608,-8388608,-8388608,551146,-8388608,-8388608,-8388608
10:49:55.034399,-8388608,-8388608,-8388608,-8388608,562311,-8388608,-8388608,-8388608
10:49:55.034399,-8388608,-8388608,-8388608,-8388608,589743,-8388608,-8388608,-8388608
10:49:55.034399,-8388608,-8388608,-8388608,-8388608,603880,-8388608,-8388608,-8388608
10:49:55.052600,-8388608,-8388608,-8388608,-8388608,587309,-8388608,-8388608,-8388608
10:49:55.057203,-8388608,-8388608,-8388608,-8388608,559463,-8388608,-8388608,-8388608
10:49:55.057203,-8388608,-8388608,-8388608,-8388608,558978,-8388608,-8388608,-8388608
10:49:55.057203,-8388608,-8388608,-8388608,-8388608,590994,-8388608,-8388608,-8388608
10:49:55.067496,-8388608,-8388608,-8388608,-8388608,610321,-8388608,-8388608,-8388608
10:49:55.067496,-8388608,-8388608,-8388608,-8388608,587251,-8388608,-8388608,-8388608
10:49:55.067496,-8388608,-8388608,-8388608,-8388608,553431,-8388608,-8388608,-8388608
10:49:55.067496,-8388608,-8388608,-8388608,-8388608,557976,-8388608,-8388608,-8388608
10:49:55.084377,-8388608,-8388608,-8388608,-8388608,591263,-8388608,-8388608,-8388608
10:49:55.084377,-8388608,-8388608,-8388608,-8388608,612916,-8388608,-8388608,-8388608
10:49:55.084377,-8388608,-8388608,-8388608,-8388608,588519,-8388608,-8388608,-8388608
10:49:55.084377,-8388608,-8388608,-8388608,-8388608,551105,-8388608,-8388608,-8388608
10:49:55.099508,-8388608,-8388608,-8388608,-8388608,560914,-8388608,-8388608,-8388608
10:49:55.102667,-8388608,-8388608,-8388608,-8388608,596013,-8388608,-8388608,-8388608
10:49:55.102667,-8388608,-8388608,-8388608,-8388608,608509,-8388608,-8388608,-8388608
10:49:55.102667,-8388608,-8388608,-8388608,-8388608,588625,-8388608,-8388608,-8388608
10:49:55.117019,-8388608,-8388608,-8388608,-8388608,559260,-8388608,-8388608,-8388608
10:49:55.117529,-8388608,-8388608,-8388608,-8388608,559538,-8388608,-8388608,-8388608
10:49:55.124884,-8388608,-8388608,-8388608,-8388608,588016,-8388608,-8388608,-8388608
10:49:55.125296,-8388608,-8388608,-8388608,-8388608,596286,-8388608,-8388608,-8388608
10:49:55.132463,-8388608,-8388608,-8388608,-8388608,569646,-8388608,-8388608,-8388608
10:49:55.136349,-8388608,-8388608,-8388608,-8388608,536752,-8388608,-8388608,-8388608
10:49:55.142292,-8388608,-8388608,-8388608,-8388608,539918,-8388608,-8388608,-8388608
10:49:55.146236,-8388608,-8388608,-8388608,-8388608,579583,-8388608,-8388608,-8388608
10:49:55.149052,-8388608,-8388608,-8388608,-8388608,595571,-8388608,-8388608,-8388608
10:49:55.152699,-8388608,-8388608,-8388608,-8388608,582893,-8388608,-8388608,-8388608
10:49:55.155736,-8388608,-8388608,-8388608,-8388608,560680,-8388608,-8388608,-8388608
10:49:55.155736,-8388608,-8388608,-8388608,-8388608,563919,-8388608,-8388608,-8388608
10:49:55.155736,-8388608,-8388608,-8388608,-8388608,592430,-8388608,-8388608,-8388608
10:49:55.167141,-8388608,-8388608,-8388608,-8388608,608396,-8388608,-8388608,-8388608
10:49:55.167141,-8388608,-8388608,-8388608,-8388608,590810,-8388608,-8388608,-8388608
10:49:55.167141,-8388608,-8388608,-8388608,-8388608,561537,-8388608,-8388608,-8388608
10:49:55.167141,-8388608,-8388608,-8388608,-8388608,558288,-8388608,-8388608,-8388608
10:49:55.183936,-8388608,-8388608,-8388608,-8388608,588889,-8388608,-8388608,-8388608
10:49:55.183936,-8388608,-8388608,-8388608,-8388608,609018,-8388608,-8388608,-8388608
10:49:55.183936,-8388608,-8388608,-8388608,-8388608,590778,-8388608,-8388608,-8388608
10:49:55.183936,-8388608,-8388608,-8388608,-8388608,563768,-8388608,-8388608,-8388608
10:49:55.199553,-8388608,-8388608,-8388608,-8388608,563512,-8388608,-8388608,-8388608
10:49:55.202074,-8388608,-8388608,-8388608,-8388608,590078,-8388608,-8388608,-8388608
10:49:55.202074,-8388608,-8388608,-8388608,-8388608,603154,-8388608,-8388608,-8388608
10:49:55.202074,-8388608,-8388608,-8388608,-8388608,584253,-8388608,-8388608,-8388608
10:49:55.215841,-8388608,-8388608,-8388608,-8388608,558661,-8388608,-8388608,-8388608
10:49:55.217529,-8388608,-8388608,-8388608,-8388608,563488,-8388608,-8388608,-8388608
10:49:55.217529,-8388608,-8388608,-8388608,-8388608,592747,-8388608,-8388608,-8388608
10:49:55.217529,-8388608,-8388608,-8388608,-8388608,606191,-8388608,-8388608,-8388608
10:49:55.231108,-8388608,-8388608,-8388608,-8388608,586416,-8388608,-8388608,-8388608
10:49:55.234551,-8388608,-8388608,-8388608,-8388608,560563,-8388608,-8388608,-8388608
10:49:55.234551,-8388608,-8388608,-8388608,-8388608,560042,-8388608,-8388608,-8388608
10:49:55.234551,-8388608,-8388608,-8388608,-8388608,590757,-8388608,-8388608,-8388608
10:49:55.234551,-8388608,-8388608,-8388608,-8388608,607524,-8388608,-8388608,-8388608
10:49:55.250928,-8388608,-8388608,-8388608,-8388608,586764,-8388608,-8388608,-8388608
10:49:55.250928,-8388608,-8388608,-8388608,-8388608,561631,-8388608,-8388608,-8388608
10:49:55.250928,-8388608,-8388608,-8388608,-8388608,563286,-8388608,-8388608,-8388608
10:49:55.250928,-8388608,-8388608,-8388608,-8388608,590144,-8388608,-8388608,-8388608
10:49:55.268152,-8388608,-8388608,-8388608,-8388608,603754,-8388608,-8388608,-8388608
10:49:55.272153,-8388608,-8388608,-8388608,-8388608,585355,-8388608,-8388608,-8388608
10:49:55.275658,-8388608,-8388608,-8388608,-8388608,555586,-8388608,-8388608,-8388608
10:49:55.275658,-8388608,-8388608,-8388608,-8388608,561977,-8388608,-8388608,-8388608
10:49:55.283937,-8388608,-8388608,-8388608,-8388608,592558,-8388608,-8388608,-8388608
10:49:55.283937,-8388608,-8388608,-8388608,-8388608,607270,-8388608,-8388608,-8388608
10:49:55.283937,-8388608,-8388608,-8388608,-8388608,587416,-8388608,-8388608,-8388608
10:49:55.283937,-8388608,-8388608,-8388608,-8388608,559514,-8388608,-8388608,-8388608
10:49:55.299562,-8388608,-8388608,-8388608,-8388608,561051,-8388608,-8388608,-8388608
10:49:55.301055,-8388608,-8388608,-8388608,-8388608,589220,-8388608,-8388608,-8388608
10:49:55.301055,-8388608,-8388608,-8388608,-8388608,606811,-8388608,-8388608,-8388608
10:49:55.301055,-8388608,-8388608,-8388608,-8388608,587677,-8388608,-8388608,-8388608
10:49:55.316960,-8388608,-8388608,-8388608,-8388608,553077,-8388608,-8388608,-8388608
10:49:55.317259,-8388608,-8388608,-8388608,-8388608,555638,-8388608,-8388608,-8388608
10:49:55.317259,-8388608,-8388608,-8388608,-8388608,588461,-8388608,-8388608,-8388608
10:49:55.317259,-8388608,-8388608,-8388608,-8388608,602004,-8388608,-8388608,-8388608
10:49:55.332573,-8388608,-8388608,-8388608,-8388608,582423,-8388608,-8388608,-8388608
10:49:55.337230,-8388608,-8388608,-8388608,-8388608,553893,-8388608,-8388608,-8388608
10:49:55.340060,-8388608,-8388608,-8388608,-8388608,555106,-8388608,-8388608,-8388608
10:49:55.340060,-8388608,-8388608,-8388608,-8388608,584434,-8388608,-8388608,-8388608
10:49:55.340060,-8388608,-8388608,-8388608,-8388608,599539,-8388608,-8388608,-8388608
10:49:55.352139,-8388608,-8388608,-8388608,-8388608,582949,-8388608,-8388608,-8388608
10:49:55.356511,-8388608,-8388608,-8388608,-8388608,555789,-8388608,-8388608,-8388608
10:49:55.360430,-8388608,-8388608,-8388608,-8388608,554719,-8388608,-8388608,-8388608
10:49:55.365549,-8388608,-8388608,-8388608,-8388608,580832,-8388608,-8388608,-8388608
10:49:55.368413,-8388608,-8388608,-8388608,-8388608,601338,-8388608,-8388608,-8388608
10:49:55.370858,-8388608,-8388608,-8388608,-8388608,583588,-8388608,-8388608,-8388608
10:49:55.370858,-8388608,-8388608,-8388608,-8388608,555498,-8388608,-8388608,-8388608
10:49:55.382406,-8388608,-8388608,-8388608,-8388608,554961,-8388608,-8388608,-8388608
10:49:55.383499,-8388608,-8388608,-8388608,-8388608,581500,-8388608,-8388608,-8388608
10:49:55.383499,-8388608,-8388608,-8388608,-8388608,596972,-8388608,-8388608,-8388608
10:49:55.383499,-8388608,-8388608,-8388608,-8388608,583375,-8388608,-8388608,-8388608
10:49:55.383499,-8388608,-8388608,-8388608,-8388608,556439,-8388608,-8388608,-8388608
10:49:55.400180,-8388608,-8388608,-8388608,-8388608,554548,-8388608,-8388608,-8388608
10:49:55.400180,-8388608,-8388608,-8388608,-8388608,587630,-8388608,-8388608,-8388608
10:49:55.400180,-8388608,-8388608,-8388608,-8388608,608976,-8388608,-8388608,-8388608
10:49:55.400180,-8388608,-8388608,-8388608,-8388608,588076,-8388608,-8388608,-8388608
10:49:55.415922,-8388608,-8388608,-8388608,-8388608,552991,-8388608,-8388608,-8388608
10:49:55.417073,-8388608,-8388608,-8388608,-8388608,553146,-8388608,-8388608,-8388608
10:49:55.417073,-8388608,-8388608,-8388608,-8388608,585045,-8388608,-8388608,-8388608
10:49:55.417073,-8388608,-8388608,-8388608,-8388608,607956,-8388608,-8388608,-8388608
10:49:55.432368,-8388608,-8388608,-8388608,-8388608,594942,-8388608,-8388608,-8388608
10:49:55.433998,-8388608,-8388608,-8388608,-8388608,564652,-8388608,-8388608,-8388608
10:49:55.433998,-8388608,-8388608,-8388608,-8388608,566278,-8388608,-8388608,-8388608
10:49:55.433998,-8388608,-8388608,-8388608,-8388608,590631,-8388608,-8388608,-8388608
10:49:55.449506,-8388608,-8388608,-8388608,-8388608,606277,-8388608,-8388608,-8388608
10:49:55.450371,-8388608,-8388608,-8388608,-8388608,594645,-8388608,-8388608,-8388608
10:49:55.450371,-8388608,-8388608,-8388608,-8388608,559519,-8388608,-8388608,-8388608
10:49:55.450371,-8388608,-8388608,-8388608,-8388608,555533,-8388608,-8388608,-8388608
10:49:55.450371,-8388608,-8388608,-8388608,-8388608,588516,-8388608,-8388608,-8388608
10:49:55.467398,-8388608,-8388608,-8388608,-8388608,612641,-8388608,-8388608,-8388608
10:49:55.467398,-8388608,-8388608,-8388608,-8388608,602882,-8388608,-8388608,-8388608
10:49:55.467398,-8388608,-8388608,-8388608,-8388608,567996,-8388608,-8388608,-8388608
10:49:55.467398,-8388608,-8388608,-8388608,-8388608,555666,-8388608,-8388608,-8388608
10:49:55.483478,-8388608,-8388608,-8388608,-8388608,582258,-8388608,-8388608,-8388608
10:49:55.488356,-8388608,-8388608,-8388608,-8388608,607588,-8388608,-8388608,-8388608
10:49:55.489369,-8388608,-8388608,-8388608,-8388608,597215,-8388608,-8388608,-8388608
10:49:55.489369,-8388608,-8388608,-8388608,-8388608,563129,-8388608,-8388608,-8388608
10:49:55.500307,-8388608,-8388608,-8388608,-8388608,558926,-8388608,-8388608,-8388608
10:49:55.500307,-8388608,-8388608,-8388608,-8388608,587490,-8388608,-8388608,-8388608
10:49:55.500307,-8388608,-8388608,-8388608,-8388608,607363,-8388608,-8388608,-8388608
10:49:55.500307,-8388608,-8388608,-8388608,-8388608,592363,-8388608,-8388608,-8388608
10:49:55.515932,-8388608,-8388608,-8388608,-8388608,563146,-8388608,-8388608,-8388608
10:49:55.517596,-8388608,-8388608,-8388608,-8388608,563437,-8388608,-8388608,-8388608
10:49:55.517596,-8388608,-8388608,-8388608,-8388608,585779,-8388608,-8388608,-8388608
10:49:55.517596,-8388608,-8388608,-8388608,-8388608,606043,-8388608,-8388608,-8388608
10:49:55.531689,-8388608,-8388608,-8388608,-8388608,589334,-8388608,-8388608,-8388608
10:49:55.534389,-8388608,-8388608,-8388608,-8388608,559873,-8388608,-8388608,-8388608
10:49:55.540087,-8388608,-8388608,-8388608,-8388608,561539,-8388608,-8388608,-8388608
10:49:55.540087,-8388608,-8388608,-8388608,-8388608,592713,-8388608,-8388608,-8388608
10:49:55.540087,-8388608,-8388608,-8388608,-8388608,607766,-8388608,-8388608,-8388608
10:49:55.552294,-8388608,-8388608,-8388608,-8388608,591574,-8388608,-8388608,-8388608
10:49:55.558727,-8388608,-8388608,-8388608,-8388608,564203,-8388608,-8388608,-8388608
10:49:55.562059,-8388608,-8388608,-8388608,-8388608,562949,-8388608,-8388608,-8388608
10:49:55.564754,-8388608,-8388608,-8388608,-8388608,590973,-8388608,-8388608,-8388608
10:49:55.566755,-8388608,-8388608,-8388608,-8388608,609284,-8388608,-8388608,-8388608
10:49:55.566755,-8388608,-8388608,-8388608,-8388608,591079,-8388608,-8388608,-8388608
10:49:55.566755,-8388608,-8388608,-8388608,-8388608,566089,-8388608,-8388608,-8388608
10:49:55.566755,-8388608,-8388608,-8388608,-8388608,563773,-8388608,-8388608,-8388608
10:49:55.584512,-8388608,-8388608,-8388608,-8388608,586571,-8388608,-8388608,-8388608
10:49:55.587506,-8388608,-8388608,-8388608,-8388608,606088,-8388608,-8388608,-8388608
10:49:55.589305,-8388608,-8388608,-8388608,-8388608,592929,-8388608,-8388608,-8388608
10:49:55.589305,-8388608,-8388608,-8388608,-8388608,564083,-8388608,-8388608,-8388608
10:49:55.598941,-8388608,-8388608,-8388608,-8388608,561994,-8388608,-8388608,-8388608
10:49:55.599797,-8388608,-8388608,-8388608,-8388608,587189,-8388608,-8388608,-8388608
10:49:55.599797,-8388608,-8388608,-8388608,-8388608,606171,-8388608,-8388608,-8388608
10:49:55.599797,-8388608,-8388608,-8388608,-8388608,596106,-8388608,-8388608,-8388608
10:49:55.615396,-8388608,-8388608,-8388608,-8388608,567680,-8388608,-8388608,-8388608
10:49:55.616810,-8388608,-8388608,-8388608,-8388608,565740,-8388608,-8388608,-8388608
10:49:55.616810,-8388608,-8388608,-8388608,-8388608,587415,-8388608,-8388608,-8388608
10:49:55.616810,-8388608,-8388608,-8388608,-8388608,604549,-8388608,-8388608,-8388608
10:49:55.632256,-8388608,-8388608,-8388608,-8388608,588699,-8388608,-8388608,-8388608
10:49:55.633519,-8388608,-8388608,-8388608,-8388608,559823,-8388608,-8388608,-8388608
10:49:55.633519,-8388608,-8388608,-8388608,-8388608,564341,-8388608,-8388608,-8388608
10:49:55.633519,-8388608,-8388608,-8388608,-8388608,590859,-8388608,-8388608,-8388608
10:49:55.633519,-8388608,-8388608,-8388608,-8388608,610603,-8388608,-8388608,-8388608
10:49:55.650344,-8388608,-8388608,-8388608,-8388608,592707,-8388608,-8388608,-8388608
10:49:55.650344,-8388608,-8388608,-8388608,-8388608,563330,-8388608,-8388608,-8388608
10:49:55.650344,-8388608,-8388608,-8388608,-8388608,562933,-8388608,-8388608,-8388608
10:49:55.650344,-8388608,-8388608,-8388608,-8388608,583311,-8388608,-8388608,-8388608
10:49:55.667656,-8388608,-8388608,-8388608,-8388608,603499,-8388608,-8388608,-8388608
10:49:55.667656,-8388608,-8388608,-8388608,-8388608,593238,-8388608,-8388608,-8388608
10:49:55.667656,-8388608,-8388608,-8388608,-8388608,567435,-8388608,-8388608,-8388608
10:49:55.667656,-8388608,-8388608,-8388608,-8388608,560034,-8388608,-8388608,-8388608
10:49:55.682903,-8388608,-8388608,-8388608,-8388608,580350,-8388608,-8388608,-8388608
10:49:55.686780,-8388608,-8388608,-8388608,-8388608,604014,-8388608,-8388608,-8388608
10:49:55.686780,-8388608,-8388608,-8388608,-8388608,590645,-8388608,-8388608,-8388608
10:49:55.686780,-8388608,-8388608,-8388608,-8388608,562427,-8388608,-8388608,-8388608
10:49:55.699801,-8388608,-8388608,-8388608,-8388608,565129,-8388608,-8388608,-8388608
10:49:55.699801,-8388608,-8388608,-8388608,-8388608,591364,-8388608,-8388608,-8388608
10:49:55.699801,-8388608,-8388608,-8388608,-8388608,609406,-8388608,-8388608,-8388608
10:49:55.699801,-8388608,-8388608,-8388608,-8388608,597436,-8388608,-8388608,-8388608
10:49:55.715331,-8388608,-8388608,-8388608,-8388608,569276,-8388608,-8388608,-8388608
10:49:55.716557,-8388608,-8388608,-8388608,-8388608,563838,-8388608,-8388608,-8388608
10:49:55.716557,-8388608,-8388608,-8388608,-8388608,588854,-8388608,-8388608,-8388608
10:49:55.716557,-8388608,-8388608,-8388608,-8388608,612281,-8388608,-8388608,-8388608
10:49:55.732067,-8388608,-8388608,-8388608,-8388608,599637,-8388608,-8388608,-8388608
10:49:55.733615,-8388608,-8388608,-8388608,-8388608,568012,-8388608,-8388608,-8388608
10:49:55.733615,-8388608,-8388608,-8388608,-8388608,563880,-8388608,-8388608,-8388608
10:49:55.733615,-8388608,-8388608,-8388608,-8388608,587629,-8388608,-8388608,-8388608
10:49:55.733615,-8388608,-8388608,-8388608,-8388608,609336,-8388608,-8388608,-8388608
10:49:55.750459,-8388608,-8388608,-8388608,-8388608,601390,-8388608,-8388608,-8388608
10:49:55.755615,-8388608,-8388608,-8388608,-8388608,568005,-8388608,-8388608,-8388608
10:49:55.755615,-8388608,-8388608,-8388608,-8388608,565516,-8388608,-8388608,-8388608
10:49:55.755615,-8388608,-8388608,-8388608,-8388608,589279,-8388608,-8388608,-8388608
10:49:55.767563,-8388608,-8388608,-8388608,-8388608,611157,-8388608,-8388608,-8388608
10:49:55.772042,-8388608,-8388608,-8388608,-8388608,602738,-8388608,-8388608,-8388608
10:49:55.776192,-8388608,-8388608,-8388608,-8388608,572096,-8388608,-8388608,-8388608
10:49:55.779414,-8388608,-8388608,-8388608,-8388608,566842,-8388608,-8388608,-8388608
10:49:55.784879,-8388608,-8388608,-8388608,-8388608,591781,-8388608,-8388608,-8388608
10:49:55.787894,-8388608,-8388608,-8388608,-8388608,604493,-8388608,-8388608,-8388608
10:49:55.787894,-8388608,-8388608,-8388608,-8388608,591988,-8388608,-8388608,-8388608
10:49:55.787894,-8388608,-8388608,-8388608,-8388608,560824,-8388608,-8388608,-8388608
10:49:55.799549,-8388608,-8388608,-8388608,-8388608,552089,-8388608,-8388608,-8388608
10:49:55.804099,-8388608,-8388608,-8388608,-8388608,569905,-8388608,-8388608,-8388608
10:49:55.807493,-8388608,-8388608,-8388608,-8388608,587123,-8388608,-8388608,-8388608
10:49:55.808819,-8388608,-8388608,-8388608,-8388608,579721,-8388608,-8388608,-8388608
10:49:55.817109,-8388608,-8388608,-8388608,-8388608,562941,-8388608,-8388608,-8388608
10:49:55.817109,-8388608,-8388608,-8388608,-8388608,566247,-8388608,-8388608,-8388608
10:49:55.817109,-8388608,-8388608,-8388608,-8388608,595641,-8388608,-8388608,-8388608
10:49:55.817109,-8388608,-8388608,-8388608,-8388608,614767,-8388608,-8388608,-8388608
10:49:55.817109,-8388608,-8388608,-8388608,-8388608,599433,-8388608,-8388608,-8388608
10:49:55.833636,-8388608,-8388608,-8388608,-8388608,571109,-8388608,-8388608,-8388608
10:49:55.833636,-8388608,-8388608,-8388608,-8388608,569733,-8388608,-8388608,-8388608
10:49:55.833636,-8388608,-8388608,-8388608,-8388608,590212,-8388608,-8388608,-8388608
10:49:55.833636,-8388608,-8388608,-8388608,-8388608,608425,-8388608,-8388608,-8388608
10:49:55.850130,-8388608,-8388608,-8388608,-8388608,599836,-8388608,-8388608,-8388608
10:49:55.850130,-8388608,-8388608,-8388608,-8388608,569297,-8388608,-8388608,-8388608
10:49:55.850130,-8388608,-8388608,-8388608,-8388608,562880,-8388608,-8388608,-8388608
10:49:55.850130,-8388608,-8388608,-8388608,-8388608,589249,-8388608,-8388608,-8388608
10:49:55.866538,-8388608,-8388608,-8388608,-8388608,606903,-8388608,-8388608,-8388608
10:49:55.867310,-8388608,-8388608,-8388608,-8388608,596981,-8388608,-8388608,-8388608
10:49:55.867310,-8388608,-8388608,-8388608,-8388608,568649,-8388608,-8388608,-8388608
10:49:55.867310,-8388608,-8388608,-8388608,-8388608,565586,-8388608,-8388608,-8388608
10:49:55.883058,-8388608,-8388608,-8388608,-8388608,588141,-8388608,-8388608,-8388608
10:49:55.883542,-8388608,-8388608,-8388608,-8388608,608771,-8388608,-8388608,-8388608
10:49:55.883542,-8388608,-8388608,-8388608,-8388608,599929,-8388608,-8388608,-8388608
10:49:55.883542,-8388608,-8388608,-8388608,-8388608,572423,-8388608,-8388608,-8388608
10:49:55.899691,-8388608,-8388608,-8388608,-8388608,561908,-8388608,-8388608,-8388608
10:49:55.903690,-8388608,-8388608,-8388608,-8388608,581059,-8388608,-8388608,-8388608
10:49:55.906105,-8388608,-8388608,-8388608,-8388608,605264,-8388608,-8388608,-8388608
10:49:55.906105,-8388608,-8388608,-8388608,-8388608,602425,-8388608,-8388608,-8388608
10:49:55.906105,-8388608,-8388608,-8388608,-8388608,571618,-8388608,-8388608,-8388608
10:49:55.916620,-8388608,-8388608,-8388608,-8388608,562714,-8388608,-8388608,-8388608
10:49:55.916620,-8388608,-8388608,-8388608,-8388608,590234,-8388608,-8388608,-8388608
10:49:55.916620,-8388608,-8388608,-8388608,-8388608,611608,-8388608,-8388608,-8388608
10:49:55.931909,-8388608,-8388608,-8388608,-8388608,597574,-8388608,-8388608,-8388608
10:49:55.932908,-8388608,-8388608,-8388608,-8388608,569737,-8388608,-8388608,-8388608
10:49:55.932908,-8388608,-8388608,-8388608,-8388608,561674,-8388608,-8388608,-8388608
10:49:55.932908,-8388608,-8388608,-8388608,-8388608,584339,-8388608,-8388608,-8388608
10:49:55.948504,-8388608,-8388608,-8388608,-8388608,610682,-8388608,-8388608,-8388608
10:49:55.949920,-8388608,-8388608,-8388608,-8388608,597444,-8388608,-8388608,-8388608
10:49:55.949920,-8388608,-8388608,-8388608,-8388608,568485,-8388608,-8388608,-8388608
10:49:55.949920,-8388608,-8388608,-8388608,-8388608,563023,-8388608,-8388608,-8388608
10:49:55.949920,-8388608,-8388608,-8388608,-8388608,586503,-8388608,-8388608,-8388608
10:49:55.967103,-8388608,-8388608,-8388608,-8388608,604420,-8388608,-8388608,-8388608
10:49:55.971372,-8388608,-8388608,-8388608,-8388608,595916,-8388608,-8388608,-8388608
10:49:55.973586,-8388608,-8388608,-8388608,-8388608,571895,-8388608,-8388608,-8388608
10:49:55.973586,-8388608,-8388608,-8388608,-8388608,563183,-8388608,-8388608,-8388608
10:49:55.982806,-8388608,-8388608,-8388608,-8388608,584645,-8388608,-8388608,-8388608
10:49:55.987816,-8388608,-8388608,-8388608,-8388608,606271,-8388608,-8388608,-8388608
10:49:55.991695,-8388608,-8388608,-8388608,-8388608,598574,-8388608,-8388608,-8388608
10:49:55.994376,-8388608,-8388608,-8388608,-8388608,567299,-8388608,-8388608,-8388608
10:49:55.999158,-8388608,-8388608,-8388608,-8388608,557455,-8388608,-8388608,-8388608
10:49:56.003166,-8388608,-8388608,-8388608,-8388608,582996,-8388608,-8388608,-8388608
10:49:56.004243,-8388608,-8388608,-8388608,-8388608,607631,-8388608,-8388608,-8388608
10:49:56.004243,-8388608,-8388608,-8388608,-8388608,598551,-8388608,-8388608,-8388608
10:49:56.016287,-8388608,-8388608,-8388608,-8388608,566889,-8388608,-8388608,-8388608
10:49:56.016398,-8388608,-8388608,-8388608,-8388608,562692,-8388608,-8388608,-8388608
10:49:56.016398,-8388608,-8388608,-8388608,-8388608,587598,-8388608,-8388608,-8388608
10:49:56.016398,-8388608,-8388608,-8388608,-8388608,608015,-8388608,-8388608,-8388608
10:49:56.016398,-8388608,-8388608,-8388608,-8388608,595068,-8388608,-8388608,-8388608
10:49:56.033187,-8388608,-8388608,-8388608,-8388608,561968,-8388608,-8388608,-8388608
10:49:56.033187,-8388608,-8388608,-8388608,-8388608,556592,-8388608,-8388608,-8388608
10:49:56.033187,-8388608,-8388608,-8388608,-8388608,578673,-8388608,-8388608,-8388608
10:49:56.033187,-8388608,-8388608,-8388608,-8388608,601942,-8388608,-8388608,-8388608
10:49:56.050486,-8388608,-8388608,-8388608,-8388608,596529,-8388608,-8388608,-8388608
10:49:56.050486,-8388608,-8388608,-8388608,-8388608,568321,-8388608,-8388608,-8388608
10:49:56.050486,-8388608,-8388608,-8388608,-8388608,562515,-8388608,-8388608,-8388608
10:49:56.050486,-8388608,-8388608,-8388608,-8388608,584334,-8388608,-8388608,-8388608
10:49:56.066907,-8388608,-8388608,-8388608,-8388608,610128,-8388608,-8388608,-8388608
10:49:56.066907,-8388608,-8388608,-8388608,-8388608,600153,-8388608,-8388608,-8388608
10:49:56.066907,-8388608,-8388608,-8388608,-8388608,569214,-8388608,-8388608,-8388608
10:49:56.066907,-8388608,-8388608,-8388608,-8388608,562012,-8388608,-8388608,-8388608
10:49:56.082073,-8388608,-8388608,-8388608,-8388608,583986,-8388608,-8388608,-8388608
10:49:56.083688,-8388608,-8388608,-8388608,-8388608,610926,-8388608,-8388608,-8388608
10:49:56.083688,-8388608,-8388608,-8388608,-8388608,599694,-8388608,-8388608,-8388608
10:49:56.083688,-8388608,-8388608,-8388608,-8388608,565196,-8388608,-8388608,-8388608
10:49:56.099529,-8388608,-8388608,-8388608,-8388608,560186,-8388608,-8388608,-8388608
10:49:56.099983,-8388608,-8388608,-8388608,-8388608,591518,-8388608,-8388608,-8388608
10:49:56.099983,-8388608,-8388608,-8388608,-8388608,617267,-8388608,-8388608,-8388608
10:49:56.099983,-8388608,-8388608,-8388608,-8388608,608273,-8388608,-8388608,-8388608
10:49:56.115094,-8388608,-8388608,-8388608,-8388608,574094,-8388608,-8388608,-8388608
10:49:56.119105,-8388608,-8388608,-8388608,-8388608,566532,-8388608,-8388608,-8388608
10:49:56.121226,-8388608,-8388608,-8388608,-8388608,587335,-8388608,-8388608,-8388608
10:49:56.121226,-8388608,-8388608,-8388608,-8388608,614521,-8388608,-8388608,-8388608
10:49:56.131918,-8388608,-8388608,-8388608,-8388608,603990,-8388608,-8388608,-8388608
10:49:56.132979,-8388608,-8388608,-8388608,-8388608,575211,-8388608,-8388608,-8388608
10:49:56.132979,-8388608,-8388608,-8388608,-8388608,569579,-8388608,-8388608,-8388608
10:49:56.132979,-8388608,-8388608,-8388608,-8388608,594341,-8388608,-8388608,-8388608
10:49:56.132979,-8388608,-8388608,-8388608,-8388608,609763,-8388608,-8388608,-8388608
10:49:56.149866,-8388608,-8388608,-8388608,-8388608,596181,-8388608,-8388608,-8388608
10:49:56.149866,-8388608,-8388608,-8388608,-8388608,570814,-8388608,-8388608,-8388608
10:49:56.149866,-8388608,-8388608,-8388608,-8388608,567503,-8388608,-8388608,-8388608
10:49:56.149866,-8388608,-8388608,-8388608,-8388608,592629,-8388608,-8388608,-8388608
10:49:56.166968,-8388608,-8388608,-8388608,-8388608,613956,-8388608,-8388608,-8388608
10:49:56.166968,-8388608,-8388608,-8388608,-8388608,605229,-8388608,-8388608,-8388608
10:49:56.166968,-8388608,-8388608,-8388608,-8388608,574564,-8388608,-8388608,-8388608
10:49:56.166968,-8388608,-8388608,-8388608,-8388608,561981,-8388608,-8388608,-8388608
10:49:56.182853,-8388608,-8388608,-8388608,-8388608,581582,-8388608,-8388608,-8388608
10:49:56.186426,-8388608,-8388608,-8388608,-8388608,603496,-8388608,-8388608,-8388608
10:49:56.189300,-8388608,-8388608,-8388608,-8388608,599818,-8388608,-8388608,-8388608
10:49:56.189300,-8388608,-8388608,-8388608,-8388608,576944,-8388608,-8388608,-8388608
10:49:56.198358,-8388608,-8388608,-8388608,-8388608,571904,-8388608,-8388608,-8388608
10:49:56.203331,-8388608,-8388608,-8388608,-8388608,588005,-8388608,-8388608,-8388608
10:49:56.208716,-8388608,-8388608,-8388608,-8388608,614922,-8388608,-8388608,-8388608
10:49:56.212744,-8388608,-8388608,-8388608,-8388608,605034,-8388608,-8388608,-8388608
10:49:56.215231,-8388608,-8388608,-8388608,-8388608,569260,-8388608,-8388608,-8388608
10:49:56.218237,-8388608,-8388608,-8388608,-8388608,564012,-8388608,-8388608,-8388608
10:49:56.220150,-8388608,-8388608,-8388608,-8388608,585276,-8388608,-8388608,-8388608
10:49:56.220150,-8388608,-8388608,-8388608,-8388608,603791,-8388608,-8388608,-8388608
10:49:56.220150,-8388608,-8388608,-8388608,-8388608,599776,-8388608,-8388608,-8388608
10:49:56.233300,-8388608,-8388608,-8388608,-8388608,575511,-8388608,-8388608,-8388608
10:49:56.233300,-8388608,-8388608,-8388608,-8388608,574419,-8388608,-8388608,-8388608
10:49:56.233300,-8388608,-8388608,-8388608,-8388608,594464,-8388608,-8388608,-8388608
10:49:56.233300,-8388608,-8388608,-8388608,-8388608,610841,-8388608,-8388608,-8388608
10:49:56.249414,-8388608,-8388608,-8388608,-8388608,597709,-8388608,-8388608,-8388608
10:49:56.249414,-8388608,-8388608,-8388608,-8388608,573306,-8388608,-8388608,-8388608
10:49:56.249414,-8388608,-8388608,-8388608,-8388608,563655,-8388608,-8388608,-8388608
10:49:56.249414,-8388608,-8388608,-8388608,-8388608,583905,-8388608,-8388608,-8388608
10:49:56.266108,-8388608,-8388608,-8388608,-8388608,612643,-8388608,-8388608,-8388608
10:49:56.266108,-8388608,-8388608,-8388608,-8388608,600744,-8388608,-8388608,-8388608
10:49:56.266108,-8388608,-8388608,-8388608,-8388608,574466,-8388608,-8388608,-8388608
10:49:56.266108,-8388608,-8388608,-8388608,-8388608,563148,-8388608,-8388608,-8388608
10:49:56.283018,-8388608,-8388608,-8388608,-8388608,587449,-8388608,-8388608,-8388608
10:49:56.283018,-8388608,-8388608,-8388608,-8388608,612092,-8388608,-8388608,-8388608
10:49:56.283018,-8388608,-8388608,-8388608,-8388608,600766,-8388608,-8388608,-8388608
10:49:56.283018,-8388608,-8388608,-8388608,-8388608,568856,-8388608,-8388608,-8388608
10:49:56.298359,-8388608,-8388608,-8388608,-8388608,559267,-8388608,-8388608,-8388608
10:49:56.299885,-8388608,-8388608,-8388608,-8388608,581923,-8388608,-8388608,-8388608
10:49:56.299885,-8388608,-8388608,-8388608,-8388608,609799,-8388608,-8388608,-8388608
10:49:56.299885,-8388608,-8388608,-8388608,-8388608,604110,-8388608,-8388608,-8388608
10:49:56.315092,-8388608,-8388608,-8388608,-8388608,574582,-8388608,-8388608,-8388608
10:49:56.316708,-8388608,-8388608,-8388608,-8388608,563347,-8388608,-8388608,-8388608
10:49:56.316708,-8388608,-8388608,-8388608,-8388608,582933,-8388608,-8388608,-8388608
10:49:56.316708,-8388608,-8388608,-8388608,-8388608,608798,-8388608,-8388608,-8388608
10:49:56.316708,-8388608,-8388608,-8388608,-8388608,610604,-8388608,-8388608,-8388608
10:49:56.334163,-8388608,-8388608,-8388608,-8388608,583935,-8388608,-8388608,-8388608
10:49:56.338476,-8388608,-8388608,-8388608,-8388608,567008,-8388608,-8388608,-8388608
10:49:56.338476,-8388608,-8388608,-8388608,-8388608,585329,-8388608,-8388608,-8388608
10:49:56.338476,-8388608,-8388608,-8388608,-8388608,610969,-8388608,-8388608,-8388608
10:49:56.349689,-8388608,-8388608,-8388608,-8388608,606603,-8388608,-8388608,-8388608
10:49:56.349689,-8388608,-8388608,-8388608,-8388608,579241,-8388608,-8388608,-8388608
10:49:56.349689,-8388608,-8388608,-8388608,-8388608,561990,-8388608,-8388608,-8388608
10:49:56.349689,-8388608,-8388608,-8388608,-8388608,583254,-8388608,-8388608,-8388608
10:49:56.366388,-8388608,-8388608,-8388608,-8388608,608910,-8388608,-8388608,-8388608
10:49:56.367082,-8388608,-8388608,-8388608,-8388608,603799,-8388608,-8388608,-8388608
10:49:56.367082,-8388608,-8388608,-8388608,-8388608,573378,-8388608,-8388608,-8388608
10:49:56.367082,-8388608,-8388608,-8388608,-8388608,565461,-8388608,-8388608,-8388608
10:49:56.383563,-8388608,-8388608,-8388608,-8388608,588348,-8388608,-8388608,-8388608
10:49:56.386814,-8388608,-8388608,-8388608,-8388608,612441,-8388608,-8388608,-8388608
10:49:56.390817,-8388608,-8388608,-8388608,-8388608,609433,-8388608,-8388608,-8388608
10:49:56.391967,-8388608,-8388608,-8388608,-8388608,578578,-8388608,-8388608,-8388608
10:49:56.391967,-8388608,-8388608,-8388608,-8388608,565268,-8388608,-8388608,-8388608
10:49:56.401755,-8388608,-8388608,-8388608,-8388608,587583,-8388608,-8388608,-8388608
10:49:56.406077,-8388608,-8388608,-8388608,-8388608,611490,-8388608,-8388608,-8388608
10:49:56.411330,-8388608,-8388608,-8388608,-8388608,603992,-8388608,-8388608,-8388608
10:49:56.414768,-8388608,-8388608,-8388608,-8388608,576603,-8388608,-8388608,-8388608
10:49:56.416076,-8388608,-8388608,-8388608,-8388608,552399,-8388608,-8388608,-8388608
10:49:56.416076,-8388608,-8388608,-8388608,-8388608,571846,-8388608,-8388608,-8388608
10:49:56.416076,-8388608,-8388608,-8388608,-8388608,590326,-8388608,-8388608,-8388608
10:49:56.416076,-8388608,-8388608,-8388608,-8388608,583947,-8388608,-8388608,-8388608
10:49:56.433200,-8388608,-8388608,-8388608,-8388608,565149,-8388608,-8388608,-8388608
10:49:56.437703,-8388608,-8388608,-8388608,-8388608,561174,-8388608,-8388608,-8388608
10:49:56.437703,-8388608,-8388608,-8388608,-8388608,585313,-8388608,-8388608,-8388608
10:49:56.437703,-8388608,-8388608,-8388608,-8388608,610674,-8388608,-8388608,-8388608
10:49:56.449455,-8388608,-8388608,-8388608,-8388608,608026,-8388608,-8388608,-8388608
10:49:56.449455,-8388608,-8388608,-8388608,-8388608,581964,-8388608,-8388608,-8388608
10:49:56.449455,-8388608,-8388608,-8388608,-8388608,567002,-8388608,-8388608,-8388608
10:49:56.449455,-8388608,-8388608,-8388608,-8388608,584922,-8388608,-8388608,-8388608
10:49:56.466655,-8388608,-8388608,-8388608,-8388608,611432,-8388608,-8388608,-8388608
10:49:56.466655,-8388608,-8388608,-8388608,-8388608,608839,-8388608,-8388608,-8388608
10:49:56.466655,-8388608,-8388608,-8388608,-8388608,579604,-8388608,-8388608,-8388608
10:49:56.466655,-8388608,-8388608,-8388608,-8388608,568461,-8388608,-8388608,-8388608
10:49:56.481344,-8388608,-8388608,-8388608,-8388608,582670,-8388608,-8388608,-8388608
10:49:56.482711,-8388608,-8388608,-8388608,-8388608,607249,-8388608,-8388608,-8388608
10:49:56.482711,-8388608,-8388608,-8388608,-8388608,604186,-8388608,-8388608,-8388608
10:49:56.482711,-8388608,-8388608,-8388608,-8388608,580395,-8388608,-8388608,-8388608
10:49:56.498066,-8388608,-8388608,-8388608,-8388608,573273,-8388608,-8388608,-8388608
10:49:56.499126,-8388608,-8388608,-8388608,-8388608,590675,-8388608,-8388608,-8388608
10:49:56.499126,-8388608,-8388608,-8388608,-8388608,609221,-8388608,-8388608,-8388608
10:49:56.499126,-8388608,-8388608,-8388608,-8388608,603174,-8388608,-8388608,-8388608
10:49:56.499126,-8388608,-8388608,-8388608,-8388608,579593,-8388608,-8388608,-8388608
10:49:56.515847,-8388608,-8388608,-8388608,-8388608,565983,-8388608,-8388608,-8388608
10:49:56.515847,-8388608,-8388608,-8388608,-8388608,579768,-8388608,-8388608,-8388608
10:49:56.515847,-8388608,-8388608,-8388608,-8388608,600194,-8388608,-8388608,-8388608
10:49:56.531533,-8388608,-8388608,-8388608,-8388608,606116,-8388608,-8388608,-8388608
10:49:56.533226,-8388608,-8388608,-8388608,-8388608,580880,-8388608,-8388608,-8388608
10:49:56.533226,-8388608,-8388608,-8388608,-8388608,566648,-8388608,-8388608,-8388608
10:49:56.533226,-8388608,-8388608,-8388608,-8388608,582973,-8388608,-8388608,-8388608
10:49:56.533226,-8388608,-8388608,-8388608,-8388608,611084,-8388608,-8388608,-8388608
10:49:56.550186,-8388608,-8388608,-8388608,-8388608,610586,-8388608,-8388608,-8388608
10:49:56.553608,-8388608,-8388608,-8388608,-8388608,579156,-8388608,-8388608,-8388608
10:49:56.553608,-8388608,-8388608,-8388608,-8388608,564382,-8388608,-8388608,-8388608
10:49:56.553608,-8388608,-8388608,-8388608,-8388608,580772,-8388608,-8388608,-8388608
10:49:56.565408,-8388608,-8388608,-8388608,-8388608,607856,-8388608,-8388608,-8388608
10:49:56.565408,-8388608,-8388608,-8388608,-8388608,605243,-8388608,-8388608,-8388608
10:49:56.565408,-8388608,-8388608,-8388608,-8388608,583409,-8388608,-8388608,-8388608
10:49:56.565408,-8388608,-8388608,-8388608,-8388608,569413,-8388608,-8388608,-8388608
10:49:56.582400,-8388608,-8388608,-8388608,-8388608,582543,-8388608,-8388608,-8388608
10:49:56.582400,-8388608,-8388608,-8388608,-8388608,608465,-8388608,-8388608,-8388608
10:49:56.582400,-8388608,-8388608,-8388608,-8388608,605555,-8388608,-8388608,-8388608
10:49:56.582400,-8388608,-8388608,-8388608,-8388608,574372,-8388608,-8388608,-8388608
10:49:56.598023,-8388608,-8388608,-8388608,-8388608,562286,-8388608,-8388608,-8388608
10:49:56.599247,-8388608,-8388608,-8388608,-8388608,587621,-8388608,-8388608,-8388608
10:49:56.605041,-8388608,-8388608,-8388608,-8388608,609969,-8388608,-8388608,-8388608
10:49:56.605041,-8388608,-8388608,-8388608,-8388608,608175,-8388608,-8388608,-8388608
10:49:56.605041,-8388608,-8388608,-8388608,-8388608,584884,-8388608,-8388608,-8388608
10:49:56.617874,-8388608,-8388608,-8388608,-8388608,564154,-8388608,-8388608,-8388608
10:49:56.622355,-8388608,-8388608,-8388608,-8388608,575876,-8388608,-8388608,-8388608
10:49:56.626338,-8388608,-8388608,-8388608,-8388608,601854,-8388608,-8388608,-8388608
10:49:56.630331,-8388608,-8388608,-8388608,-8388608,601069,-8388608,-8388608,-8388608
10:49:56.633439,-8388608,-8388608,-8388608,-8388608,574248,-8388608,-8388608,-8388608
10:49:56.633439,-8388608,-8388608,-8388608,-8388608,561149,-8388608,-8388608,-8388608
10:49:56.633439,-8388608,-8388608,-8388608,-8388608,575822,-8388608,-8388608,-8388608
10:49:56.633439,-8388608,-8388608,-8388608,-8388608,602660,-8388608,-8388608,-8388608
10:49:56.650244,-8388608,-8388608,-8388608,-8388608,601303,-8388608,-8388608,-8388608
10:49:56.654571,-8388608,-8388608,-8388608,-8388608,571949,-8388608,-8388608,-8388608
10:49:56.654571,-8388608,-8388608,-8388608,-8388608,560176,-8388608,-8388608,-8388608
10:49:56.654571,-8388608,-8388608,-8388608,-8388608,587722,-8388608,-8388608,-8388608
10:49:56.665534,-8388608,-8388608,-8388608,-8388608,605602,-8388608,-8388608,-8388608
10:49:56.665534,-8388608,-8388608,-8388608,-8388608,593503,-8388608,-8388608,-8388608
10:49:56.665534,-8388608,-8388608,-8388608,-8388608,571026,-8388608,-8388608,-8388608
10:49:56.665534,-8388608,-8388608,-8388608,-8388608,559388,-8388608,-8388608,-8388608
10:49:56.682463,-8388608,-8388608,-8388608,-8388608,575258,-8388608,-8388608,-8388608
10:49:56.682463,-8388608,-8388608,-8388608,-8388608,604879,-8388608,-8388608,-8388608
10:49:56.682463,-8388608,-8388608,-8388608,-8388608,609807,-8388608,-8388608,-8388608
10:49:56.682463,-8388608,-8388608,-8388608,-8388608,583061,-8388608,-8388608,-8388608
10:49:56.698079,-8388608,-8388608,-8388608,-8388608,566713,-8388608,-8388608,-8388608
10:49:56.699246,-8388608,-8388608,-8388608,-8388608,585513,-8388608,-8388608,-8388608
10:49:56.699246,-8388608,-8388608,-8388608,-8388608,612673,-8388608,-8388608,-8388608
10:49:56.699246,-8388608,-8388608,-8388608,-8388608,607699,-8388608,-8388608,-8388608
10:49:56.699246,-8388608,-8388608,-8388608,-8388608,578224,-8388608,-8388608,-8388608
10:49:56.715856,-8388608,-8388608,-8388608,-8388608,566326,-8388608,-8388608,-8388608
10:49:56.715856,-8388608,-8388608,-8388608,-8388608,586229,-8388608,-8388608,-8388608
10:49:56.715856,-8388608,-8388608,-8388608,-8388608,616191,-8388608,-8388608,-8388608
10:49:56.715856,-8388608,-8388608,-8388608,-8388608,613471,-8388608,-8388608,-8388608
10:49:56.733524,-8388608,-8388608,-8388608,-8388608,579959,-8388608,-8388608,-8388608
10:49:56.733524,-8388608,-8388608,-8388608,-8388608,568929,-8388608,-8388608,-8388608
10:49:56.733524,-8388608,-8388608,-8388608,-8388608,586428,-8388608,-8388608,-8388608
10:49:56.733524,-8388608,-8388608,-8388608,-8388608,609931,-8388608,-8388608,-8388608
10:49:56.749500,-8388608,-8388608,-8388608,-8388608,613536,-8388608,-8388608,-8388608
10:49:56.749500,-8388608,-8388608,-8388608,-8388608,586650,-8388608,-8388608,-8388608
10:49:56.749500,-8388608,-8388608,-8388608,-8388608,567944,-8388608,-8388608,-8388608
10:49:56.749500,-8388608,-8388608,-8388608,-8388608,581487,-8388608,-8388608,-8388608
10:49:56.765667,-8388608,-8388608,-8388608,-8388608,606696,-8388608,-8388608,-8388608
10:49:56.769667,-8388608,-8388608,-8388608,-8388608,612069,-8388608,-8388608,-8388608
10:49:56.772465,-8388608,-8388608,-8388608,-8388608,591421,-8388608,-8388608,-8388608
10:49:56.772465,-8388608,-8388608,-8388608,-8388608,576839,-8388608,-8388608,-8388608
10:49:56.782295,-8388608,-8388608,-8388608,-8388608,583230,-8388608,-8388608,-8388608
10:49:56.782822,-8388608,-8388608,-8388608,-8388608,609651,-8388608,-8388608,-8388608
10:49:56.782822,-8388608,-8388608,-8388608,-8388608,611478,-8388608,-8388608,-8388608
10:49:56.782822,-8388608,-8388608,-8388608,-8388608,584706,-8388608,-8388608,-8388608
10:49:56.797941,-8388608,-8388608,-8388608,-8388608,571051,-8388608,-8388608,-8388608
10:49:56.800948,-8388608,-8388608,-8388608,-8388608,586664,-8388608,-8388608,-8388608
10:49:56.805145,-8388608,-8388608,-8388608,-8388608,612205,-8388608,-8388608,-8388608
10:49:56.807413,-8388608,-8388608,-8388608,-8388608,609064,-8388608,-8388608,-8388608
10:49:56.814589,-8388608,-8388608,-8388608,-8388608,584766,-8388608,-8388608,-8388608
10:49:56.818320,-8388608,-8388608,-8388608,-8388608,569743,-8388608,-8388608,-8388608
10:49:56.821518,-8388608,-8388608,-8388608,-8388608,582709,-8388608,-8388608,-8388608
10:49:56.825658,-8388608,-8388608,-8388608,-8388608,612097,-8388608,-8388608,-8388608
10:49:56.829850,-8388608,-8388608,-8388608,-8388608,614788,-8388608,-8388608,-8388608
10:49:56.833591,-8388608,-8388608,-8388608,-8388608,586314,-8388608,-8388608,-8388608
10:49:56.833591,-8388608,-8388608,-8388608,-8388608,574388,-8388608,-8388608,-8388608
10:49:56.833591,-8388608,-8388608,-8388608,-8388608,588380,-8388608,-8388608,-8388608
10:49:56.833591,-8388608,-8388608,-8388608,-8388608,613564,-8388608,-8388608,-8388608
10:49:56.849434,-8388608,-8388608,-8388608,-8388608,608116,-8388608,-8388608,-8388608
10:49:56.854080,-8388608,-8388608,-8388608,-8388608,579185,-8388608,-8388608,-8388608
10:49:56.857583,-8388608,-8388608,-8388608,-8388608,566704,-8388608,-8388608,-8388608
10:49:56.858898,-8388608,-8388608,-8388608,-8388608,583817,-8388608,-8388608,-8388608
10:49:56.866453,-8388608,-8388608,-8388608,-8388608,615940,-8388608,-8388608,-8388608
10:49:56.870536,-8388608,-8388608,-8388608,-8388608,612014,-8388608,-8388608,-8388608
10:49:56.871235,-8388608,-8388608,-8388608,-8388608,588142,-8388608,-8388608,-8388608
10:49:56.871235,-8388608,-8388608,-8388608,-8388608,577002,-8388608,-8388608,-8388608
10:49:56.881063,-8388608,-8388608,-8388608,-8388608,585274,-8388608,-8388608,-8388608
10:49:56.882167,-8388608,-8388608,-8388608,-8388608,614411,-8388608,-8388608,-8388608
10:49:56.882167,-8388608,-8388608,-8388608,-8388608,609268,-8388608,-8388608,-8388608
10:49:56.882167,-8388608,-8388608,-8388608,-8388608,576826,-8388608,-8388608,-8388608
10:49:56.898910,-8388608,-8388608,-8388608,-8388608,566506,-8388608,-8388608,-8388608
10:49:56.899429,-8388608,-8388608,-8388608,-8388608,584069,-8388608,-8388608,-8388608
10:49:56.899429,-8388608,-8388608,-8388608,-8388608,615136,-8388608,-8388608,-8388608
10:49:56.899429,-8388608,-8388608,-8388608,-8388608,613690,-8388608,-8388608,-8388608
10:49:56.899429,-8388608,-8388608,-8388608,-8388608,586176,-8388608,-8388608,-8388608
10:49:56.916790,-8388608,-8388608,-8388608,-8388608,569062,-8388608,-8388608,-8388608
10:49:56.916790,-8388608,-8388608,-8388608,-8388608,581971,-8388608,-8388608,-8388608
10:49:56.916790,-8388608,-8388608,-8388608,-8388608,608360,-8388608,-8388608,-8388608
10:49:56.916790,-8388608,-8388608,-8388608,-8388608,611134,-8388608,-8388608,-8388608
10:49:56.933589,-8388608,-8388608,-8388608,-8388608,589248,-8388608,-8388608,-8388608
10:49:56.933589,-8388608,-8388608,-8388608,-8388608,574743,-8388608,-8388608,-8388608
10:49:56.933589,-8388608,-8388608,-8388608,-8388608,581158,-8388608,-8388608,-8388608
10:49:56.933589,-8388608,-8388608,-8388608,-8388608,601794,-8388608,-8388608,-8388608
10:49:56.948841,-8388608,-8388608,-8388608,-8388608,610223,-8388608,-8388608,-8388608
10:49:56.948841,-8388608,-8388608,-8388608,-8388608,587718,-8388608,-8388608,-8388608
10:49:56.948841,-8388608,-8388608,-8388608,-8388608,564737,-8388608,-8388608,-8388608
10:49:56.948841,-8388608,-8388608,-8388608,-8388608,580962,-8388608,-8388608,-8388608
10:49:56.965545,-8388608,-8388608,-8388608,-8388608,613308,-8388608,-8388608,-8388608
10:49:56.969695,-8388608,-8388608,-8388608,-8388608,609976,-8388608,-8388608,-8388608
10:49:56.969695,-8388608,-8388608,-8388608,-8388608,588013,-8388608,-8388608,-8388608
10:49:56.969695,-8388608,-8388608,-8388608,-8388608,577299,-8388608,-8388608,-8388608
10:49:56.981038,-8388608,-8388608,-8388608,-8388608,585857,-8388608,-8388608,-8388608
10:49:56.982014,-8388608,-8388608,-8388608,-8388608,611677,-8388608,-8388608,-8388608
10:49:56.982014,-8388608,-8388608,-8388608,-8388608,619726,-8388608,-8388608,-8388608
10:49:56.982014,-8388608,-8388608,-8388608,-8388608,592082,-8388608,-8388608,-8388608
10:49:56.998670,-8388608,-8388608,-8388608,-8388608,569450,-8388608,-8388608,-8388608
10:49:56.998670,-8388608,-8388608,-8388608,-8388608,582430,-8388608,-8388608,-8388608
10:49:56.998670,-8388608,-8388608,-8388608,-8388608,611796,-8388608,-8388608,-8388608
10:49:56.998670,-8388608,-8388608,-8388608,-8388608,614594,-8388608,-8388608,-8388608
10:49:56.998670,-8388608,-8388608,-8388608,-8388608,591475,-8388608,-8388608,-8388608
10:49:57.015655,-8388608,-8388608,-8388608,-8388608,572913,-8388608,-8388608,-8388608
10:49:57.021822,-8388608,-8388608,-8388608,-8388608,582270,-8388608,-8388608,-8388608
10:49:57.021822,-8388608,-8388608,-8388608,-8388608,609482,-8388608,-8388608,-8388608
10:49:57.021822,-8388608,-8388608,-8388608,-8388608,616296,-8388608,-8388608,-8388608
10:49:57.033647,-8388608,-8388608,-8388608,-8388608,591005,-8388608,-8388608,-8388608
10:49:57.037838,-8388608,-8388608,-8388608,-8388608,570947,-8388608,-8388608,-8388608
10:49:57.041360,-8388608,-8388608,-8388608,-8388608,585448,-8388608,-8388608,-8388608
10:49:57.045336,-8388608,-8388608,-8388608,-8388608,616060,-8388608,-8388608,-8388608
10:49:57.048689,-8388608,-8388608,-8388608,-8388608,616481,-8388608,-8388608,-8388608
10:49:57.048689,-8388608,-8388608,-8388608,-8388608,583026,-8388608,-8388608,-8388608
10:49:57.048689,-8388608,-8388608,-8388608,-8388608,566579,-8388608,-8388608,-8388608
10:49:57.048689,-8388608,-8388608,-8388608,-8388608,577669,-8388608,-8388608,-8388608
10:49:57.064178,-8388608,-8388608,-8388608,-8388608,603887,-8388608,-8388608,-8388608
10:49:57.065407,-8388608,-8388608,-8388608,-8388608,599176,-8388608,-8388608,-8388608
10:49:57.065407,-8388608,-8388608,-8388608,-8388608,565749,-8388608,-8388608,-8388608
10:49:57.065407,-8388608,-8388608,-8388608,-8388608,549620,-8388608,-8388608,-8388608
10:49:57.082029,-8388608,-8388608,-8388608,-8388608,574882,-8388608,-8388608,-8388608
10:49:57.087100,-8388608,-8388608,-8388608,-8388608,612471,-8388608,-8388608,-8388608
10:49:57.087284,-8388608,-8388608,-8388608,-8388608,619434,-8388608,-8388608,-8388608
10:49:57.087284,-8388608,-8388608,-8388608,-8388608,589436,-8388608,-8388608,-8388608
10:49:57.097576,-8388608,-8388608,-8388608,-8388608,567725,-8388608,-8388608,-8388608
10:49:57.098722,-8388608,-8388608,-8388608,-8388608,580445,-8388608,-8388608,-8388608
10:49:57.098722,-8388608,-8388608,-8388608,-8388608,612247,-8388608,-8388608,-8388608
10:49:57.098722,-8388608,-8388608,-8388608,-8388608,620634,-8388608,-8388608,-8388608
10:49:57.098722,-8388608,-8388608,-8388608,-8388608,587453,-8388608,-8388608,-8388608
10:49:57.115613,-8388608,-8388608,-8388608,-8388608,568174,-8388608,-8388608,-8388608
10:49:57.115613,-8388608,-8388608,-8388608,-8388608,580378,-8388608,-8388608,-8388608
10:49:57.115613,-8388608,-8388608,-8388608,-8388608,609454,-8388608,-8388608,-8388608
10:49:57.115613,-8388608,-8388608,-8388608,-8388608,611996,-8388608,-8388608,-8388608
10:49:57.132551,-8388608,-8388608,-8388608,-8388608,586558,-8388608,-8388608,-8388608
10:49:57.133562,-8388608,-8388608,-8388608,-8388608,566291,-8388608,-8388608,-8388608
10:49:57.133562,-8388608,-8388608,-8388608,-8388608,582926,-8388608,-8388608,-8388608
10:49:57.133562,-8388608,-8388608,-8388608,-8388608,620343,-8388608,-8388608,-8388608
10:49:57.148778,-8388608,-8388608,-8388608,-8388608,618692,-8388608,-8388608,-8388608
10:49:57.149317,-8388608,-8388608,-8388608,-8388608,589392,-8388608,-8388608,-8388608
10:49:57.149317,-8388608,-8388608,-8388608,-8388608,570858,-8388608,-8388608,-8388608
10:49:57.149317,-8388608,-8388608,-8388608,-8388608,587369,-8388608,-8388608,-8388608
10:49:57.165882,-8388608,-8388608,-8388608,-8388608,612853,-8388608,-8388608,-8388608
10:49:57.165882,-8388608,-8388608,-8388608,-8388608,608839,-8388608,-8388608,-8388608
10:49:57.165882,-8388608,-8388608,-8388608,-8388608,580060,-8388608,-8388608,-8388608
10:49:57.165882,-8388608,-8388608,-8388608,-8388608,566714,-8388608,-8388608,-8388608
10:49:57.180852,-8388608,-8388608,-8388608,-8388608,578296,-8388608,-8388608,-8388608
10:49:57.184938,-8388608,-8388608,-8388608,-8388608,605702,-8388608,-8388608,-8388608
10:49:57.187388,-8388608,-8388608,-8388608,-8388608,615576,-8388608,-8388608,-8388608
10:49:57.187388,-8388608,-8388608,-8388608,-8388608,586761,-8388608,-8388608,-8388608
10:49:57.197737,-8388608,-8388608,-8388608,-8388608,567046,-8388608,-8388608,-8388608
10:49:57.198813,-8388608,-8388608,-8388608,-8388608,577217,-8388608,-8388608,-8388608
10:49:57.198813,-8388608,-8388608,-8388608,-8388608,611242,-8388608,-8388608,-8388608
10:49:57.198813,-8388608,-8388608,-8388608,-8388608,619300,-8388608,-8388608,-8388608
10:49:57.198813,-8388608,-8388608,-8388608,-8388608,590687,-8388608,-8388608,-8388608
10:49:57.215431,-8388608,-8388608,-8388608,-8388608,562759,-8388608,-8388608,-8388608
10:49:57.215431,-8388608,-8388608,-8388608,-8388608,569547,-8388608,-8388608,-8388608
10:49:57.225449,-8388608,-8388608,-8388608,-8388608,605898,-8388608,-8388608,-8388608
10:49:57.225449,-8388608,-8388608,-8388608,-8388608,613802,-8388608,-8388608,-8388608
10:49:57.232609,-8388608,-8388608,-8388608,-8388608,588555,-8388608,-8388608,-8388608
10:49:57.237118,-8388608,-8388608,-8388608,-8388608,570674,-8388608,-8388608,-8388608
10:49:57.241152,-8388608,-8388608,-8388608,-8388608,581814,-8388608,-8388608,-8388608
10:49:57.244421,-8388608,-8388608,-8388608,-8388608,611134,-8388608,-8388608,-8388608
10:49:57.249148,-8388608,-8388608,-8388608,-8388608,619789,-8388608,-8388608,-8388608
10:49:57.253365,-8388608,-8388608,-8388608,-8388608,587792,-8388608,-8388608,-8388608
10:49:57.257270,-8388608,-8388608,-8388608,-8388608,561789,-8388608,-8388608,-8388608
10:49:57.257270,-8388608,-8388608,-8388608,-8388608,579580,-8388608,-8388608,-8388608
10:49:57.265064,-8388608,-8388608,-8388608,-8388608,606098,-8388608,-8388608,-8388608
10:49:57.265064,-8388608,-8388608,-8388608,-8388608,607507,-8388608,-8388608,-8388608
10:49:57.265064,-8388608,-8388608,-8388608,-8388608,583519,-8388608,-8388608,-8388608
10:49:57.265064,-8388608,-8388608,-8388608,-8388608,560173,-8388608,-8388608,-8388608
10:49:57.280457,-8388608,-8388608,-8388608,-8388608,570229,-8388608,-8388608,-8388608
10:49:57.281280,-8388608,-8388608,-8388608,-8388608,602033,-8388608,-8388608,-8388608
10:49:57.281280,-8388608,-8388608,-8388608,-8388608,609050,-8388608,-8388608,-8388608
10:49:57.281280,-8388608,-8388608,-8388608,-8388608,585036,-8388608,-8388608,-8388608
10:49:57.296379,-8388608,-8388608,-8388608,-8388608,559926,-8388608,-8388608,-8388608
10:49:57.300474,-8388608,-8388608,-8388608,-8388608,567254,-8388608,-8388608,-8388608
10:49:57.304469,-8388608,-8388608,-8388608,-8388608,601603,-8388608,-8388608,-8388608
10:49:57.304469,-8388608,-8388608,-8388608,-8388608,609566,-8388608,-8388608,-8388608
10:49:57.304469,-8388608,-8388608,-8388608,-8388608,579381,-8388608,-8388608,-8388608
10:49:57.315591,-8388608,-8388608,-8388608,-8388608,555447,-8388608,-8388608,-8388608
10:49:57.315591,-8388608,-8388608,-8388608,-8388608,570431,-8388608,-8388608,-8388608
10:49:57.315591,-8388608,-8388608,-8388608,-8388608,610496,-8388608,-8388608,-8388608
10:49:57.315591,-8388608,-8388608,-8388608,-8388608,607609,-8388608,-8388608,-8388608
10:49:57.332228,-8388608,-8388608,-8388608,-8388608,580081,-8388608,-8388608,-8388608
10:49:57.333807,-8388608,-8388608,-8388608,-8388608,559164,-8388608,-8388608,-8388608
10:49:57.333807,-8388608,-8388608,-8388608,-8388608,572611,-8388608,-8388608,-8388608
10:49:57.333807,-8388608,-8388608,-8388608,-8388608,615683,-8388608,-8388608,-8388608
10:49:57.349307,-8388608,-8388608,-8388608,-8388608,625432,-8388608,-8388608,-8388608
10:49:57.349307,-8388608,-8388608,-8388608,-8388608,591579,-8388608,-8388608,-8388608
10:49:57.349307,-8388608,-8388608,-8388608,-8388608,562138,-8388608,-8388608,-8388608
10:49:57.349307,-8388608,-8388608,-8388608,-8388608,568039,-8388608,-8388608,-8388608
10:49:57.349307,-8388608,-8388608,-8388608,-8388608,602061,-8388608,-8388608,-8388608
10:49:57.368577,-8388608,-8388608,-8388608,-8388608,613000,-8388608,-8388608,-8388608
10:49:57.372564,-8388608,-8388608,-8388608,-8388608,591099,-8388608,-8388608,-8388608
10:49:57.377900,-8388608,-8388608,-8388608,-8388608,569701,-8388608,-8388608,-8388608
10:49:57.381588,-8388608,-8388608,-8388608,-8388608,580149,-8388608,-8388608,-8388608
10:49:57.385934,-8388608,-8388608,-8388608,-8388608,608535,-8388608,-8388608,-8388608
10:49:57.389938,-8388608,-8388608,-8388608,-8388608,615309,-8388608,-8388608,-8388608
10:49:57.391893,-8388608,-8388608,-8388608,-8388608,590622,-8388608,-8388608,-8388608
10:49:57.398454,-8388608,-8388608,-8388608,-8388608,568446,-8388608,-8388608,-8388608
10:49:57.401450,-8388608,-8388608,-8388608,-8388608,576324,-8388608,-8388608,-8388608
10:49:57.404227,-8388608,-8388608,-8388608,-8388608,612269,-8388608,-8388608,-8388608
10:49:57.404227,-8388608,-8388608,-8388608,-8388608,621767,-8388608,-8388608,-8388608
10:49:57.404227,-8388608,-8388608,-8388608,-8388608,592434,-8388608,-8388608,-8388608
10:49:57.415084,-8388608,-8388608,-8388608,-8388608,563496,-8388608,-8388608,-8388608
10:49:57.419904,-8388608,-8388608,-8388608,-8388608,576649,-8388608,-8388608,-8388608
10:49:57.421580,-8388608,-8388608,-8388608,-8388608,610944,-8388608,-8388608,-8388608
10:49:57.421580,-8388608,-8388608,-8388608,-8388608,619576,-8388608,-8388608,-8388608
10:49:57.432680,-8388608,-8388608,-8388608,-8388608,588743,-8388608,-8388608,-8388608
10:49:57.437489,-8388608,-8388608,-8388608,-8388608,563158,-8388608,-8388608,-8388608
10:49:57.441998,-8388608,-8388608,-8388608,-8388608,574368,-8388608,-8388608,-8388608
10:49:57.444613,-8388608,-8388608,-8388608,-8388608,608191,-8388608,-8388608,-8388608
10:49:57.448467,-8388608,-8388608,-8388608,-8388608,618119,-8388608,-8388608,-8388608
10:49:57.448467,-8388608,-8388608,-8388608,-8388608,593136,-8388608,-8388608,-8388608
10:49:57.448467,-8388608,-8388608,-8388608,-8388608,566909,-8388608,-8388608,-8388608
10:49:57.448467,-8388608,-8388608,-8388608,-8388608,578090,-8388608,-8388608,-8388608
10:49:57.465168,-8388608,-8388608,-8388608,-8388608,609190,-8388608,-8388608,-8388608
10:49:57.465631,-8388608,-8388608,-8388608,-8388608,613409,-8388608,-8388608,-8388608
10:49:57.465631,-8388608,-8388608,-8388608,-8388608,587652,-8388608,-8388608,-8388608
10:49:57.465631,-8388608,-8388608,-8388608,-8388608,562774,-8388608,-8388608,-8388608
10:49:57.480621,-8388608,-8388608,-8388608,-8388608,578104,-8388608,-8388608,-8388608
10:49:57.482253,-8388608,-8388608,-8388608,-8388608,613431,-8388608,-8388608,-8388608
10:49:57.482253,-8388608,-8388608,-8388608,-8388608,615373,-8388608,-8388608,-8388608
10:49:57.482253,-8388608,-8388608,-8388608,-8388608,588125,-8388608,-8388608,-8388608
10:49:57.498418,-8388608,-8388608,-8388608,-8388608,563244,-8388608,-8388608,-8388608
10:49:57.502413,-8388608,-8388608,-8388608,-8388608,578198,-8388608,-8388608,-8388608
10:49:57.504608,-8388608,-8388608,-8388608,-8388608,610605,-8388608,-8388608,-8388608
10:49:57.504608,-8388608,-8388608,-8388608,-8388608,622286,-8388608,-8388608,-8388608
10:49:57.504608,-8388608,-8388608,-8388608,-8388608,592489,-8388608,-8388608,-8388608
10:49:57.515221,-8388608,-8388608,-8388608,-8388608,562069,-8388608,-8388608,-8388608
10:49:57.515221,-8388608,-8388608,-8388608,-8388608,571998,-8388608,-8388608,-8388608
10:49:57.515221,-8388608,-8388608,-8388608,-8388608,603746,-8388608,-8388608,-8388608
10:49:57.515221,-8388608,-8388608,-8388608,-8388608,616677,-8388608,-8388608,-8388608
10:49:57.532112,-8388608,-8388608,-8388608,-8388608,591156,-8388608,-8388608,-8388608
10:49:57.533703,-8388608,-8388608,-8388608,-8388608,565308,-8388608,-8388608,-8388608
10:49:57.533703,-8388608,-8388608,-8388608,-8388608,573780,-8388608,-8388608,-8388608
10:49:57.533703,-8388608,-8388608,-8388608,-8388608,607140,-8388608,-8388608,-8388608
10:49:57.548784,-8388608,-8388608,-8388608,-8388608,617303,-8388608,-8388608,-8388608
10:49:57.548784,-8388608,-8388608,-8388608,-8388608,588570,-8388608,-8388608,-8388608
10:49:57.548784,-8388608,-8388608,-8388608,-8388608,558398,-8388608,-8388608,-8388608
10:49:57.548784,-8388608,-8388608,-8388608,-8388608,567149,-8388608,-8388608,-8388608
10:49:57.563960,-8388608,-8388608,-8388608,-8388608,601198,-8388608,-8388608,-8388608
10:49:57.565531,-8388608,-8388608,-8388608,-8388608,613520,-8388608,-8388608,-8388608
10:49:57.565531,-8388608,-8388608,-8388608,-8388608,594258,-8388608,-8388608,-8388608
10:49:57.565531,-8388608,-8388608,-8388608,-8388608,562898,-8388608,-8388608,-8388608
10:49:57.581755,-8388608,-8388608,-8388608,-8388608,567743,-8388608,-8388608,-8388608
10:49:57.582255,-8388608,-8388608,-8388608,-8388608,600278,-8388608,-8388608,-8388608
10:49:57.582255,-8388608,-8388608,-8388608,-8388608,614043,-8388608,-8388608,-8388608
10:49:57.582255,-8388608,-8388608,-8388608,-8388608,588641,-8388608,-8388608,-8388608
10:49:57.582255,-8388608,-8388608,-8388608,-8388608,561659,-8388608,-8388608,-8388608
10:49:57.601147,-8388608,-8388608,-8388608,-8388608,564052,-8388608,-8388608,-8388608
10:49:57.603739,-8388608,-8388608,-8388608,-8388608,595389,-8388608,-8388608,-8388608
10:49:57.603739,-8388608,-8388608,-8388608,-8388608,607279,-8388608,-8388608,-8388608
10:49:57.603739,-8388608,-8388608,-8388608,-8388608,583748,-8388608,-8388608,-8388608
10:49:57.615662,-8388608,-8388608,-8388608,-8388608,561376,-8388608,-8388608,-8388608
10:49:57.615662,-8388608,-8388608,-8388608,-8388608,572281,-8388608,-8388608,-8388608
10:49:57.615662,-8388608,-8388608,-8388608,-8388608,600105,-8388608,-8388608,-8388608
10:49:57.615662,-8388608,-8388608,-8388608,-8388608,606840,-8388608,-8388608,-8388608
10:49:57.631876,-8388608,-8388608,-8388608,-8388608,586161,-8388608,-8388608,-8388608
10:49:57.633883,-8388608,-8388608,-8388608,-8388608,557774,-8388608,-8388608,-8388608
10:49:57.633883,-8388608,-8388608,-8388608,-8388608,563926,-8388608,-8388608,-8388608
10:49:57.633883,-8388608,-8388608,-8388608,-8388608,595587,-8388608,-8388608,-8388608
10:49:57.648442,-8388608,-8388608,-8388608,-8388608,608719,-8388608,-8388608,-8388608
10:49:57.652431,-8388608,-8388608,-8388608,-8388608,588858,-8388608,-8388608,-8388608
10:49:57.654780,-8388608,-8388608,-8388608,-8388608,561746,-8388608,-8388608,-8388608
10:49:57.654780,-8388608,-8388608,-8388608,-8388608,566439,-8388608,-8388608,-8388608
10:49:57.664691,-8388608,-8388608,-8388608,-8388608,599302,-8388608,-8388608,-8388608
10:49:57.667547,-8388608,-8388608,-8388608,-8388608,612226,-8388608,-8388608,-8388608
10:49:57.673063,-8388608,-8388608,-8388608,-8388608,585024,-8388608,-8388608,-8388608
10:49:57.677266,-8388608,-8388608,-8388608,-8388608,556824,-8388608,-8388608,-8388608
10:49:57.680552,-8388608,-8388608,-8388608,-8388608,565919,-8388608,-8388608,-8388608
10:49:57.682813,-8388608,-8388608,-8388608,-8388608,601101,-8388608,-8388608,-8388608
10:49:57.682813,-8388608,-8388608,-8388608,-8388608,613915,-8388608,-8388608,-8388608
10:49:57.682813,-8388608,-8388608,-8388608,-8388608,592575,-8388608,-8388608,-8388608
10:49:57.682813,-8388608,-8388608,-8388608,-8388608,567614,-8388608,-8388608,-8388608
10:49:57.698710,-8388608,-8388608,-8388608,-8388608,567364,-8388608,-8388608,-8388608
10:49:57.698710,-8388608,-8388608,-8388608,-8388608,593981,-8388608,-8388608,-8388608
10:49:57.698710,-8388608,-8388608,-8388608,-8388608,612443,-8388608,-8388608,-8388608
10:49:57.698710,-8388608,-8388608,-8388608,-8388608,594204,-8388608,-8388608,-8388608
10:49:57.716734,-8388608,-8388608,-8388608,-8388608,560397,-8388608,-8388608,-8388608
10:49:57.720636,-8388608,-8388608,-8388608,-8388608,567784,-8388608,-8388608,-8388608
10:49:57.720636,-8388608,-8388608,-8388608,-8388608,601424,-8388608,-8388608,-8388608
10:49:57.720636,-8388608,-8388608,-8388608,-8388608,608533,-8388608,-8388608,-8388608
10:49:57.731303,-8388608,-8388608,-8388608,-8388608,583773,-8388608,-8388608,-8388608
10:49:57.733842,-8388608,-8388608,-8388608,-8388608,554898,-8388608,-8388608,-8388608
10:49:57.733842,-8388608,-8388608,-8388608,-8388608,556924,-8388608,-8388608,-8388608
10:49:57.733842,-8388608,-8388608,-8388608,-8388608,585294,-8388608,-8388608,-8388608
10:49:57.747900,-8388608,-8388608,-8388608,-8388608,595468,-8388608,-8388608,-8388608
10:49:57.748459,-8388608,-8388608,-8388608,-8388608,571911,-8388608,-8388608,-8388608
10:49:57.748459,-8388608,-8388608,-8388608,-8388608,549751,-8388608,-8388608,-8388608
10:49:57.748459,-8388608,-8388608,-8388608,-8388608,552221,-8388608,-8388608,-8388608
10:49:57.765004,-8388608,-8388608,-8388608,-8388608,592772,-8388608,-8388608,-8388608
10:49:57.765004,-8388608,-8388608,-8388608,-8388608,617973,-8388608,-8388608,-8388608
10:49:57.765004,-8388608,-8388608,-8388608,-8388608,594080,-8388608,-8388608,-8388608
10:49:57.765004,-8388608,-8388608,-8388608,-8388608,564654,-8388608,-8388608,-8388608
10:49:57.765004,-8388608,-8388608,-8388608,-8388608,566903,-8388608,-8388608,-8388608
10:49:57.781700,-8388608,-8388608,-8388608,-8388608,605957,-8388608,-8388608,-8388608
10:49:57.781700,-8388608,-8388608,-8388608,-8388608,628701,-8388608,-8388608,-8388608
10:49:57.781700,-8388608,-8388608,-8388608,-8388608,607806,-8388608,-8388608,-8388608
10:49:57.797008,-8388608,-8388608,-8388608,-8388608,558611,-8388608,-8388608,-8388608
10:49:57.798658,-8388608,-8388608,-8388608,-8388608,558918,-8388608,-8388608,-8388608
10:49:57.798658,-8388608,-8388608,-8388608,-8388608,593706,-8388608,-8388608,-8388608
10:49:57.798658,-8388608,-8388608,-8388608,-8388608,612261,-8388608,-8388608,-8388608
10:49:57.813795,-8388608,-8388608,-8388608,-8388608,590121,-8388608,-8388608,-8388608
10:49:57.816877,-8388608,-8388608,-8388608,-8388608,566276,-8388608,-8388608,-8388608
10:49:57.820892,-8388608,-8388608,-8388608,-8388608,572003,-8388608,-8388608,-8388608
10:49:57.820892,-8388608,-8388608,-8388608,-8388608,605423,-8388608,-8388608,-8388608
10:49:57.820892,-8388608,-8388608,-8388608,-8388608,616987,-8388608,-8388608,-8388608
10:49:57.831629,-8388608,-8388608,-8388608,-8388608,594759,-8388608,-8388608,-8388608
10:49:57.834136,-8388608,-8388608,-8388608,-8388608,570390,-8388608,-8388608,-8388608
10:49:57.834136,-8388608,-8388608,-8388608,-8388608,568720,-8388608,-8388608,-8388608
10:49:57.834136,-8388608,-8388608,-8388608,-8388608,599086,-8388608,-8388608,-8388608
10:49:57.848636,-8388608,-8388608,-8388608,-8388608,616712,-8388608,-8388608,-8388608
10:49:57.848636,-8388608,-8388608,-8388608,-8388608,598996,-8388608,-8388608,-8388608
10:49:57.848636,-8388608,-8388608,-8388608,-8388608,568964,-8388608,-8388608,-8388608
10:49:57.848636,-8388608,-8388608,-8388608,-8388608,568673,-8388608,-8388608,-8388608
10:49:57.864146,-8388608,-8388608,-8388608,-8388608,597292,-8388608,-8388608,-8388608
10:49:57.865732,-8388608,-8388608,-8388608,-8388608,612728,-8388608,-8388608,-8388608
10:49:57.871597,-8388608,-8388608,-8388608,-8388608,596665,-8388608,-8388608,-8388608
10:49:57.871597,-8388608,-8388608,-8388608,-8388608,571018,-8388608,-8388608,-8388608
10:49:57.880247,-8388608,-8388608,-8388608,-8388608,574068,-8388608,-8388608,-8388608
10:49:57.883772,-8388608,-8388608,-8388608,-8388608,599148,-8388608,-8388608,-8388608
10:49:57.888230,-8388608,-8388608,-8388608,-8388608,613880,-8388608,-8388608,-8388608
10:49:57.892237,-8388608,-8388608,-8388608,-8388608,596311,-8388608,-8388608,-8388608
10:49:57.896088,-8388608,-8388608,-8388608,-8388608,570008,-8388608,-8388608,-8388608
10:49:57.897961,-8388608,-8388608,-8388608,-8388608,569309,-8388608,-8388608,-8388608
10:49:57.897961,-8388608,-8388608,-8388608,-8388608,597679,-8388608,-8388608,-8388608
10:49:57.897961,-8388608,-8388608,-8388608,-8388608,614184,-8388608,-8388608,-8388608
10:49:57.913588,-8388608,-8388608,-8388608,-8388608,590579,-8388608,-8388608,-8388608
10:49:57.914954,-8388608,-8388608,-8388608,-8388608,569961,-8388608,-8388608,-8388608
10:49:57.914954,-8388608,-8388608,-8388608,-8388608,568972,-8388608,-8388608,-8388608
10:49:57.914954,-8388608,-8388608,-8388608,-8388608,595833,-8388608,-8388608,-8388608
10:49:57.914954,-8388608,-8388608,-8388608,-8388608,614738,-8388608,-8388608,-8388608
10:49:57.932236,-8388608,-8388608,-8388608,-8388608,596221,-8388608,-8388608,-8388608
10:49:57.936141,-8388608,-8388608,-8388608,-8388608,562924,-8388608,-8388608,-8388608
10:49:57.936193,-8388608,-8388608,-8388608,-8388608,564603,-8388608,-8388608,-8388608
10:49:57.936193,-8388608,-8388608,-8388608,-8388608,597525,-8388608,-8388608,-8388608
10:49:57.948061,-8388608,-8388608,-8388608,-8388608,611508,-8388608,-8388608,-8388608
10:49:57.948061,-8388608,-8388608,-8388608,-8388608,588247,-8388608,-8388608,-8388608
10:49:57.948061,-8388608,-8388608,-8388608,-8388608,564620,-8388608,-8388608,-8388608
10:49:57.948061,-8388608,-8388608,-8388608,-8388608,566221,-8388608,-8388608,-8388608
10:49:57.964158,-8388608,-8388608,-8388608,-8388608,600701,-8388608,-8388608,-8388608
10:49:57.964158,-8388608,-8388608,-8388608,-8388608,609182,-8388608,-8388608,-8388608
10:49:57.964158,-8388608,-8388608,-8388608,-8388608,589121,-8388608,-8388608,-8388608
10:49:57.964158,-8388608,-8388608,-8388608,-8388608,563649,-8388608,-8388608,-8388608
10:49:57.980158,-8388608,-8388608,-8388608,-8388608,565410,-8388608,-8388608,-8388608
10:49:57.981374,-8388608,-8388608,-8388608,-8388608,592177,-8388608,-8388608,-8388608
10:49:57.981374,-8388608,-8388608,-8388608,-8388608,605740,-8388608,-8388608,-8388608
10:49:57.981374,-8388608,-8388608,-8388608,-8388608,588189,-8388608,-8388608,-8388608
10:49:57.981374,-8388608,-8388608,-8388608,-8388608,566124,-8388608,-8388608,-8388608
10:49:57.998134,-8388608,-8388608,-8388608,-8388608,570434,-8388608,-8388608,-8388608
10:49:57.998134,-8388608,-8388608,-8388608,-8388608,595866,-8388608,-8388608,-8388608
10:49:57.998134,-8388608,-8388608,-8388608,-8388608,610668,-8388608,-8388608,-8388608
10:49:57.998134,-8388608,-8388608,-8388608,-8388608,591571,-8388608,-8388608,-8388608
10:49:58.014541,-8388608,-8388608,-8388608,-8388608,564936,-8388608,-8388608,-8388608
10:49:58.015614,-8388608,-8388608,-8388608,-8388608,567763,-8388608,-8388608,-8388608
10:49:58.015614,-8388608,-8388608,-8388608,-8388608,596898,-8388608,-8388608,-8388608
10:49:58.015614,-8388608,-8388608,-8388608,-8388608,616241,-8388608,-8388608,-8388608
10:49:58.032180,-8388608,-8388608,-8388608,-8388608,601056,-8388608,-8388608,-8388608
10:49:58.036265,-8388608,-8388608,-8388608,-8388608,573723,-8388608,-8388608,-8388608
10:49:58.036937,-8388608,-8388608,-8388608,-8388608,570821,-8388608,-8388608,-8388608
10:49:58.036937,-8388608,-8388608,-8388608,-8388608,599759,-8388608,-8388608,-8388608
10:49:58.048156,-8388608,-8388608,-8388608,-8388608,620628,-8388608,-8388608,-8388608
10:49:58.048156,-8388608,-8388608,-8388608,-8388608,602088,-8388608,-8388608,-8388608
10:49:58.048156,-8388608,-8388608,-8388608,-8388608,572255,-8388608,-8388608,-8388608
10:49:58.048156,-8388608,-8388608,-8388608,-8388608,575222,-8388608,-8388608,-8388608
10:49:58.065169,-8388608,-8388608,-8388608,-8388608,602310,-8388608,-8388608,-8388608
10:49:58.065169,-8388608,-8388608,-8388608,-8388608,614584,-8388608,-8388608,-8388608
10:49:58.065169,-8388608,-8388608,-8388608,-8388608,598785,-8388608,-8388608,-8388608
10:49:58.065169,-8388608,-8388608,-8388608,-8388608,572919,-8388608,-8388608,-8388608
10:49:58.065169,-8388608,-8388608,-8388608,-8388608,573711,-8388608,-8388608,-8388608
10:49:58.084648,-8388608,-8388608,-8388608,-8388608,595224,-8388608,-8388608,-8388608
10:49:58.086790,-8388608,-8388608,-8388608,-8388608,611083,-8388608,-8388608,-8388608
10:49:58.086790,-8388608,-8388608,-8388608,-8388608,600113,-8388608,-8388608,-8388608
10:49:58.086790,-8388608,-8388608,-8388608,-8388608,572873,-8388608,-8388608,-8388608
10:49:58.098586,-8388608,-8388608,-8388608,-8388608,571274,-8388608,-8388608,-8388608
10:49:58.103623,-8388608,-8388608,-8388608,-8388608,600997,-8388608,-8388608,-8388608
10:49:58.107546,-8388608,-8388608,-8388608,-8388608,618441,-8388608,-8388608,-8388608
10:49:58.111549,-8388608,-8388608,-8388608,-8388608,599216,-8388608,-8388608,-8388608
10:49:58.114556,-8388608,-8388608,-8388608,-8388608,572964,-8388608,-8388608,-8388608
10:49:58.114556,-8388608,-8388608,-8388608,-8388608,572332,-8388608,-8388608,-8388608
10:49:58.114556,-8388608,-8388608,-8388608,-8388608,598126,-8388608,-8388608,-8388608
10:49:58.114556,-8388608,-8388608,-8388608,-8388608,620212,-8388608,-8388608,-8388608
