10:57:11.304819,-8388608,-8388608,-8388608,-8388608,496244,-8388608,-8388608,-8388608
10:57:11.304819,-8388608,-8388608,-8388608,-8388608,489427,-8388608,-8388608,-8388608
10:57:11.304819,-8388608,-8388608,-8388608,-8388608,491186,-8388608,-8388608,-8388608
10:57:11.320965,-8388608,-8388608,-8388608,-8388608,499241,-8388608,-8388608,-8388608
10:57:11.320965,-8388608,-8388608,-8388608,-8388608,498956,-8388608,-8388608,-8388608
10:57:11.320965,-8388608,-8388608,-8388608,-8388608,494601,-8388608,-8388608,-8388608
10:57:11.320965,-8388608,-8388608,-8388608,-8388608,490004,-8388608,-8388608,-8388608
10:57:11.337727,-8388608,-8388608,-8388608,-8388608,492338,-8388608,-8388608,-8388608
10:57:11.337727,-8388608,-8388608,-8388608,-8388608,501011,-8388608,-8388608,-8388608
10:57:11.337727,-8388608,-8388608,-8388608,-8388608,501926,-8388608,-8388608,-8388608
10:57:11.337727,-8388608,-8388608,-8388608,-8388608,499373,-8388608,-8388608,-8388608
10:57:11.354529,-8388608,-8388608,-8388608,-8388608,492673,-8388608,-8388608,-8388608
10:57:11.358587,-8388608,-8388608,-8388608,-8388608,490846,-8388608,-8388608,-8388608
10:57:11.359015,-8388608,-8388608,-8388608,-8388608,497675,-8388608,-8388608,-8388608
10:57:11.359015,-8388608,-8388608,-8388608,-8388608,501993,-8388608,-8388608,-8388608
10:57:11.369630,-8388608,-8388608,-8388608,-8388608,497043,-8388608,-8388608,-8388608
10:57:11.370342,-8388608,-8388608,-8388608,-8388608,490374,-8388608,-8388608,-8388608
10:57:11.370342,-8388608,-8388608,-8388608,-8388608,492424,-8388608,-8388608,-8388608
10:57:11.370342,-8388608,-8388608,-8388608,-8388608,497186,-8388608,-8388608,-8388608
10:57:11.385434,-8388608,-8388608,-8388608,-8388608,500549,-8388608,-8388608,-8388608
10:57:11.387505,-8388608,-8388608,-8388608,-8388608,498476,-8388608,-8388608,-8388608
10:57:11.387505,-8388608,-8388608,-8388608,-8388608,489176,-8388608,-8388608,-8388608
10:57:11.387505,-8388608,-8388608,-8388608,-8388608,491145,-8388608,-8388608,-8388608
10:57:11.387505,-8388608,-8388608,-8388608,-8388608,501774,-8388608,-8388608,-8388608
10:57:11.404226,-8388608,-8388608,-8388608,-8388608,502654,-8388608,-8388608,-8388608
10:57:11.404226,-8388608,-8388608,-8388608,-8388608,496119,-8388608,-8388608,-8388608
10:57:11.404226,-8388608,-8388608,-8388608,-8388608,491811,-8388608,-8388608,-8388608
10:57:11.404226,-8388608,-8388608,-8388608,-8388608,491032,-8388608,-8388608,-8388608
10:57:11.421147,-8388608,-8388608,-8388608,-8388608,497014,-8388608,-8388608,-8388608
10:57:11.421147,-8388608,-8388608,-8388608,-8388608,502383,-8388608,-8388608,-8388608
10:57:11.421147,-8388608,-8388608,-8388608,-8388608,497169,-8388608,-8388608,-8388608
10:57:11.421147,-8388608,-8388608,-8388608,-8388608,493652,-8388608,-8388608,-8388608
10:57:11.437723,-8388608,-8388608,-8388608,-8388608,494252,-8388608,-8388608,-8388608
10:57:11.437723,-8388608,-8388608,-8388608,-8388608,499688,-8388608,-8388608,-8388608
10:57:11.437723,-8388608,-8388608,-8388608,-8388608,501376,-8388608,-8388608,-8388608
10:57:11.437723,-8388608,-8388608,-8388608,-8388608,494945,-8388608,-8388608,-8388608
10:57:11.453750,-8388608,-8388608,-8388608,-8388608,491378,-8388608,-8388608,-8388608
10:57:11.457812,-8388608,-8388608,-8388608,-8388608,493601,-8388608,-8388608,-8388608
10:57:11.459372,-8388608,-8388608,-8388608,-8388608,497752,-8388608,-8388608,-8388608
10:57:11.459372,-8388608,-8388608,-8388608,-8388608,499172,-8388608,-8388608,-8388608
10:57:11.470565,-8388608,-8388608,-8388608,-8388608,497990,-8388608,-8388608,-8388608
10:57:11.474158,-8388608,-8388608,-8388608,-8388608,493968,-8388608,-8388608,-8388608
10:57:11.478440,-8388608,-8388608,-8388608,-8388608,493403,-8388608,-8388608,-8388608
10:57:11.480146,-8388608,-8388608,-8388608,-8388608,499269,-8388608,-8388608,-8388608
10:57:11.480146,-8388608,-8388608,-8388608,-8388608,502256,-8388608,-8388608,-8388608
10:57:11.487365,-8388608,-8388608,-8388608,-8388608,497451,-8388608,-8388608,-8388608
10:57:11.487365,-8388608,-8388608,-8388608,-8388608,494093,-8388608,-8388608,-8388608
10:57:11.487365,-8388608,-8388608,-8388608,-8388608,492704,-8388608,-8388608,-8388608
10:57:11.487365,-8388608,-8388608,-8388608,-8388608,498814,-8388608,-8388608,-8388608
10:57:11.504673,-8388608,-8388608,-8388608,-8388608,502866,-8388608,-8388608,-8388608
10:57:11.504673,-8388608,-8388608,-8388608,-8388608,497358,-8388608,-8388608,-8388608
10:57:11.504673,-8388608,-8388608,-8388608,-8388608,493096,-8388608,-8388608,-8388608
10:57:11.504673,-8388608,-8388608,-8388608,-8388608,494877,-8388608,-8388608,-8388608
10:57:11.520467,-8388608,-8388608,-8388608,-8388608,500396,-8388608,-8388608,-8388608
10:57:11.520467,-8388608,-8388608,-8388608,-8388608,501736,-8388608,-8388608,-8388608
10:57:11.520467,-8388608,-8388608,-8388608,-8388608,494853,-8388608,-8388608,-8388608
10:57:11.520467,-8388608,-8388608,-8388608,-8388608,487038,-8388608,-8388608,-8388608
10:57:11.537611,-8388608,-8388608,-8388608,-8388608,487038,-8388608,-8388608,-8388608
10:57:11.541879,-8388608,-8388608,-8388608,-8388608,496665,-8388608,-8388608,-8388608
10:57:11.543511,-8388608,-8388608,-8388608,-8388608,503131,-8388608,-8388608,-8388608
10:57:11.543511,-8388608,-8388608,-8388608,-8388608,498617,-8388608,-8388608,-8388608
10:57:11.553681,-8388608,-8388608,-8388608,-8388608,491471,-8388608,-8388608,-8388608
10:57:11.556598,-8388608,-8388608,-8388608,-8388608,493270,-8388608,-8388608,-8388608
10:57:11.560000,-8388608,-8388608,-8388608,-8388608,496259,-8388608,-8388608,-8388608
10:57:11.560000,-8388608,-8388608,-8388608,-8388608,498693,-8388608,-8388608,-8388608
10:57:11.569165,-8388608,-8388608,-8388608,-8388608,497194,-8388608,-8388608,-8388608
10:57:11.574279,-8388608,-8388608,-8388608,-8388608,489186,-8388608,-8388608,-8388608
10:57:11.578449,-8388608,-8388608,-8388608,-8388608,489071,-8388608,-8388608,-8388608
10:57:11.581570,-8388608,-8388608,-8388608,-8388608,498511,-8388608,-8388608,-8388608
10:57:11.586189,-8388608,-8388608,-8388608,-8388608,504523,-8388608,-8388608,-8388608
10:57:11.587165,-8388608,-8388608,-8388608,-8388608,499887,-8388608,-8388608,-8388608
10:57:11.587165,-8388608,-8388608,-8388608,-8388608,493021,-8388608,-8388608,-8388608
10:57:11.587165,-8388608,-8388608,-8388608,-8388608,492309,-8388608,-8388608,-8388608
10:57:11.602469,-8388608,-8388608,-8388608,-8388608,498103,-8388608,-8388608,-8388608
10:57:11.604025,-8388608,-8388608,-8388608,-8388608,502479,-8388608,-8388608,-8388608
10:57:11.604025,-8388608,-8388608,-8388608,-8388608,497128,-8388608,-8388608,-8388608
10:57:11.604025,-8388608,-8388608,-8388608,-8388608,494063,-8388608,-8388608,-8388608
10:57:11.604025,-8388608,-8388608,-8388608,-8388608,496251,-8388608,-8388608,-8388608
10:57:11.620604,-8388608,-8388608,-8388608,-8388608,501139,-8388608,-8388608,-8388608
10:57:11.620604,-8388608,-8388608,-8388608,-8388608,504324,-8388608,-8388608,-8388608
10:57:11.620604,-8388608,-8388608,-8388608,-8388608,501137,-8388608,-8388608,-8388608
10:57:11.620604,-8388608,-8388608,-8388608,-8388608,494441,-8388608,-8388608,-8388608
10:57:11.637268,-8388608,-8388608,-8388608,-8388608,493663,-8388608,-8388608,-8388608
10:57:11.637268,-8388608,-8388608,-8388608,-8388608,500937,-8388608,-8388608,-8388608
10:57:11.637268,-8388608,-8388608,-8388608,-8388608,504548,-8388608,-8388608,-8388608
10:57:11.637268,-8388608,-8388608,-8388608,-8388608,501266,-8388608,-8388608,-8388608
10:57:11.654127,-8388608,-8388608,-8388608,-8388608,496983,-8388608,-8388608,-8388608
10:57:11.654127,-8388608,-8388608,-8388608,-8388608,497352,-8388608,-8388608,-8388608
10:57:11.654127,-8388608,-8388608,-8388608,-8388608,497424,-8388608,-8388608,-8388608
10:57:11.654127,-8388608,-8388608,-8388608,-8388608,491299,-8388608,-8388608,-8388608
10:57:11.668722,-8388608,-8388608,-8388608,-8388608,480621,-8388608,-8388608,-8388608
10:57:11.673423,-8388608,-8388608,-8388608,-8388608,469724,-8388608,-8388608,-8388608
10:57:11.673423,-8388608,-8388608,-8388608,-8388608,467011,-8388608,-8388608,-8388608
10:57:11.673423,-8388608,-8388608,-8388608,-8388608,476945,-8388608,-8388608,-8388608
10:57:11.686918,-8388608,-8388608,-8388608,-8388608,486918,-8388608,-8388608,-8388608
10:57:11.686918,-8388608,-8388608,-8388608,-8388608,487563,-8388608,-8388608,-8388608
10:57:11.686918,-8388608,-8388608,-8388608,-8388608,488117,-8388608,-8388608,-8388608
10:57:11.686918,-8388608,-8388608,-8388608,-8388608,493808,-8388608,-8388608,-8388608
10:57:11.686918,-8388608,-8388608,-8388608,-8388608,500990,-8388608,-8388608,-8388608
10:57:11.703659,-8388608,-8388608,-8388608,-8388608,500779,-8388608,-8388608,-8388608
10:57:11.703659,-8388608,-8388608,-8388608,-8388608,496482,-8388608,-8388608,-8388608
10:57:11.703659,-8388608,-8388608,-8388608,-8388608,491279,-8388608,-8388608,-8388608
10:57:11.703659,-8388608,-8388608,-8388608,-8388608,492374,-8388608,-8388608,-8388608
10:57:11.720265,-8388608,-8388608,-8388608,-8388608,500989,-8388608,-8388608,-8388608
10:57:11.720265,-8388608,-8388608,-8388608,-8388608,498878,-8388608,-8388608,-8388608
10:57:11.720265,-8388608,-8388608,-8388608,-8388608,493228,-8388608,-8388608,-8388608
10:57:11.720265,-8388608,-8388608,-8388608,-8388608,491955,-8388608,-8388608,-8388608
10:57:11.737168,-8388608,-8388608,-8388608,-8388608,492743,-8388608,-8388608,-8388608
10:57:11.737168,-8388608,-8388608,-8388608,-8388608,500576,-8388608,-8388608,-8388608
10:57:11.737168,-8388608,-8388608,-8388608,-8388608,503978,-8388608,-8388608,-8388608
10:57:11.737168,-8388608,-8388608,-8388608,-8388608,500928,-8388608,-8388608,-8388608
10:57:11.753242,-8388608,-8388608,-8388608,-8388608,492269,-8388608,-8388608,-8388608
10:57:11.757467,-8388608,-8388608,-8388608,-8388608,491543,-8388608,-8388608,-8388608
10:57:11.760019,-8388608,-8388608,-8388608,-8388608,498307,-8388608,-8388608,-8388608
10:57:11.760019,-8388608,-8388608,-8388608,-8388608,502554,-8388608,-8388608,-8388608
10:57:11.770362,-8388608,-8388608,-8388608,-8388608,501826,-8388608,-8388608,-8388608
10:57:11.773371,-8388608,-8388608,-8388608,-8388608,492588,-8388608,-8388608,-8388608
10:57:11.777507,-8388608,-8388608,-8388608,-8388608,491899,-8388608,-8388608,-8388608
10:57:11.782496,-8388608,-8388608,-8388608,-8388608,498599,-8388608,-8388608,-8388608
10:57:11.786381,-8388608,-8388608,-8388608,-8388608,500569,-8388608,-8388608,-8388608
10:57:11.787277,-8388608,-8388608,-8388608,-8388608,496286,-8388608,-8388608,-8388608
10:57:11.787277,-8388608,-8388608,-8388608,-8388608,492251,-8388608,-8388608,-8388608
10:57:11.787277,-8388608,-8388608,-8388608,-8388608,494339,-8388608,-8388608,-8388608
10:57:11.787277,-8388608,-8388608,-8388608,-8388608,498593,-8388608,-8388608,-8388608
10:57:11.804076,-8388608,-8388608,-8388608,-8388608,501869,-8388608,-8388608,-8388608
10:57:11.804076,-8388608,-8388608,-8388608,-8388608,499935,-8388608,-8388608,-8388608
10:57:11.804076,-8388608,-8388608,-8388608,-8388608,489989,-8388608,-8388608,-8388608
10:57:11.804076,-8388608,-8388608,-8388608,-8388608,490421,-8388608,-8388608,-8388608
10:57:11.820433,-8388608,-8388608,-8388608,-8388608,495076,-8388608,-8388608,-8388608
10:57:11.820433,-8388608,-8388608,-8388608,-8388608,498033,-8388608,-8388608,-8388608
10:57:11.820433,-8388608,-8388608,-8388608,-8388608,496245,-8388608,-8388608,-8388608
10:57:11.820433,-8388608,-8388608,-8388608,-8388608,491321,-8388608,-8388608,-8388608
10:57:11.836842,-8388608,-8388608,-8388608,-8388608,492278,-8388608,-8388608,-8388608
10:57:11.837598,-8388608,-8388608,-8388608,-8388608,498098,-8388608,-8388608,-8388608
10:57:11.837598,-8388608,-8388608,-8388608,-8388608,500567,-8388608,-8388608,-8388608
10:57:11.837598,-8388608,-8388608,-8388608,-8388608,496493,-8388608,-8388608,-8388608
10:57:11.852616,-8388608,-8388608,-8388608,-8388608,488270,-8388608,-8388608,-8388608
10:57:11.854418,-8388608,-8388608,-8388608,-8388608,489048,-8388608,-8388608,-8388608
10:57:11.854418,-8388608,-8388608,-8388608,-8388608,495609,-8388608,-8388608,-8388608
10:57:11.854418,-8388608,-8388608,-8388608,-8388608,497896,-8388608,-8388608,-8388608
10:57:11.869429,-8388608,-8388608,-8388608,-8388608,492419,-8388608,-8388608,-8388608
10:57:11.870912,-8388608,-8388608,-8388608,-8388608,486853,-8388608,-8388608,-8388608
10:57:11.870912,-8388608,-8388608,-8388608,-8388608,487303,-8388608,-8388608,-8388608
10:57:11.870912,-8388608,-8388608,-8388608,-8388608,494950,-8388608,-8388608,-8388608
10:57:11.870912,-8388608,-8388608,-8388608,-8388608,499608,-8388608,-8388608,-8388608
10:57:11.888914,-8388608,-8388608,-8388608,-8388608,491563,-8388608,-8388608,-8388608
10:57:11.893405,-8388608,-8388608,-8388608,-8388608,485000,-8388608,-8388608,-8388608
10:57:11.893405,-8388608,-8388608,-8388608,-8388608,486904,-8388608,-8388608,-8388608
10:57:11.893405,-8388608,-8388608,-8388608,-8388608,492396,-8388608,-8388608,-8388608
10:57:11.903829,-8388608,-8388608,-8388608,-8388608,492878,-8388608,-8388608,-8388608
10:57:11.903829,-8388608,-8388608,-8388608,-8388608,486316,-8388608,-8388608,-8388608
10:57:11.903829,-8388608,-8388608,-8388608,-8388608,481839,-8388608,-8388608,-8388608
10:57:11.903829,-8388608,-8388608,-8388608,-8388608,483274,-8388608,-8388608,-8388608
10:57:11.921017,-8388608,-8388608,-8388608,-8388608,490843,-8388608,-8388608,-8388608
10:57:11.921017,-8388608,-8388608,-8388608,-8388608,493863,-8388608,-8388608,-8388608
10:57:11.921017,-8388608,-8388608,-8388608,-8388608,489393,-8388608,-8388608,-8388608
10:57:11.921017,-8388608,-8388608,-8388608,-8388608,481589,-8388608,-8388608,-8388608
10:57:11.937543,-8388608,-8388608,-8388608,-8388608,482400,-8388608,-8388608,-8388608
10:57:11.937543,-8388608,-8388608,-8388608,-8388608,490028,-8388608,-8388608,-8388608
10:57:11.937543,-8388608,-8388608,-8388608,-8388608,490719,-8388608,-8388608,-8388608
10:57:11.937543,-8388608,-8388608,-8388608,-8388608,487274,-8388608,-8388608,-8388608
10:57:11.952552,-8388608,-8388608,-8388608,-8388608,480480,-8388608,-8388608,-8388608
10:57:11.957548,-8388608,-8388608,-8388608,-8388608,483958,-8388608,-8388608,-8388608
10:57:11.959458,-8388608,-8388608,-8388608,-8388608,488747,-8388608,-8388608,-8388608
10:57:11.959458,-8388608,-8388608,-8388608,-8388608,489874,-8388608,-8388608,-8388608
10:57:11.959458,-8388608,-8388608,-8388608,-8388608,485899,-8388608,-8388608,-8388608
10:57:11.972144,-8388608,-8388608,-8388608,-8388608,484199,-8388608,-8388608,-8388608
10:57:11.978042,-8388608,-8388608,-8388608,-8388608,487123,-8388608,-8388608,-8388608
10:57:11.982143,-8388608,-8388608,-8388608,-8388608,493084,-8388608,-8388608,-8388608
10:57:11.985243,-8388608,-8388608,-8388608,-8388608,497844,-8388608,-8388608,-8388608
10:57:11.989247,-8388608,-8388608,-8388608,-8388608,493079,-8388608,-8388608,-8388608
10:57:11.991622,-8388608,-8388608,-8388608,-8388608,486560,-8388608,-8388608,-8388608
10:57:11.991622,-8388608,-8388608,-8388608,-8388608,488753,-8388608,-8388608,-8388608
10:57:11.991622,-8388608,-8388608,-8388608,-8388608,497876,-8388608,-8388608,-8388608
10:57:12.003643,-8388608,-8388608,-8388608,-8388608,500482,-8388608,-8388608,-8388608
10:57:12.003643,-8388608,-8388608,-8388608,-8388608,497249,-8388608,-8388608,-8388608
10:57:12.003643,-8388608,-8388608,-8388608,-8388608,491889,-8388608,-8388608,-8388608
10:57:12.003643,-8388608,-8388608,-8388608,-8388608,492693,-8388608,-8388608,-8388608
10:57:12.019905,-8388608,-8388608,-8388608,-8388608,496950,-8388608,-8388608,-8388608
10:57:12.019905,-8388608,-8388608,-8388608,-8388608,500908,-8388608,-8388608,-8388608
10:57:12.019905,-8388608,-8388608,-8388608,-8388608,498515,-8388608,-8388608,-8388608
10:57:12.019905,-8388608,-8388608,-8388608,-8388608,492565,-8388608,-8388608,-8388608
10:57:12.036520,-8388608,-8388608,-8388608,-8388608,492124,-8388608,-8388608,-8388608
10:57:12.036520,-8388608,-8388608,-8388608,-8388608,498788,-8388608,-8388608,-8388608
10:57:12.036520,-8388608,-8388608,-8388608,-8388608,502769,-8388608,-8388608,-8388608
10:57:12.036520,-8388608,-8388608,-8388608,-8388608,496691,-8388608,-8388608,-8388608
10:57:12.052141,-8388608,-8388608,-8388608,-8388608,491106,-8388608,-8388608,-8388608
10:57:12.054261,-8388608,-8388608,-8388608,-8388608,490794,-8388608,-8388608,-8388608
10:57:12.054261,-8388608,-8388608,-8388608,-8388608,498110,-8388608,-8388608,-8388608
10:57:12.054261,-8388608,-8388608,-8388608,-8388608,501386,-8388608,-8388608,-8388608
10:57:12.068599,-8388608,-8388608,-8388608,-8388608,496817,-8388608,-8388608,-8388608
10:57:12.071359,-8388608,-8388608,-8388608,-8388608,493879,-8388608,-8388608,-8388608
10:57:12.071359,-8388608,-8388608,-8388608,-8388608,496799,-8388608,-8388608,-8388608
10:57:12.071359,-8388608,-8388608,-8388608,-8388608,501352,-8388608,-8388608,-8388608
10:57:12.071359,-8388608,-8388608,-8388608,-8388608,501403,-8388608,-8388608,-8388608
10:57:12.087001,-8388608,-8388608,-8388608,-8388608,494718,-8388608,-8388608,-8388608
10:57:12.087001,-8388608,-8388608,-8388608,-8388608,489345,-8388608,-8388608,-8388608
10:57:12.087001,-8388608,-8388608,-8388608,-8388608,492254,-8388608,-8388608,-8388608
10:57:12.102012,-8388608,-8388608,-8388608,-8388608,498763,-8388608,-8388608,-8388608
10:57:12.105691,-8388608,-8388608,-8388608,-8388608,505183,-8388608,-8388608,-8388608
10:57:12.108665,-8388608,-8388608,-8388608,-8388608,499969,-8388608,-8388608,-8388608
10:57:12.110152,-8388608,-8388608,-8388608,-8388608,494734,-8388608,-8388608,-8388608
10:57:12.110152,-8388608,-8388608,-8388608,-8388608,496675,-8388608,-8388608,-8388608
10:57:12.120033,-8388608,-8388608,-8388608,-8388608,498224,-8388608,-8388608,-8388608
10:57:12.120033,-8388608,-8388608,-8388608,-8388608,499824,-8388608,-8388608,-8388608
10:57:12.120033,-8388608,-8388608,-8388608,-8388608,497186,-8388608,-8388608,-8388608
10:57:12.120033,-8388608,-8388608,-8388608,-8388608,490904,-8388608,-8388608,-8388608
10:57:12.137032,-8388608,-8388608,-8388608,-8388608,492981,-8388608,-8388608,-8388608
10:57:12.137032,-8388608,-8388608,-8388608,-8388608,501931,-8388608,-8388608,-8388608
10:57:12.137032,-8388608,-8388608,-8388608,-8388608,501818,-8388608,-8388608,-8388608
10:57:12.137032,-8388608,-8388608,-8388608,-8388608,497423,-8388608,-8388608,-8388608
10:57:12.153001,-8388608,-8388608,-8388608,-8388608,493799,-8388608,-8388608,-8388608
10:57:12.153717,-8388608,-8388608,-8388608,-8388608,494876,-8388608,-8388608,-8388608
10:57:12.153717,-8388608,-8388608,-8388608,-8388608,502106,-8388608,-8388608,-8388608
10:57:12.153717,-8388608,-8388608,-8388608,-8388608,502893,-8388608,-8388608,-8388608
10:57:12.170129,-8388608,-8388608,-8388608,-8388608,497624,-8388608,-8388608,-8388608
10:57:12.173840,-8388608,-8388608,-8388608,-8388608,491320,-8388608,-8388608,-8388608
10:57:12.176134,-8388608,-8388608,-8388608,-8388608,494656,-8388608,-8388608,-8388608
10:57:12.176134,-8388608,-8388608,-8388608,-8388608,502362,-8388608,-8388608,-8388608
10:57:12.176134,-8388608,-8388608,-8388608,-8388608,502593,-8388608,-8388608,-8388608
10:57:12.188214,-8388608,-8388608,-8388608,-8388608,495133,-8388608,-8388608,-8388608
10:57:12.192999,-8388608,-8388608,-8388608,-8388608,490933,-8388608,-8388608,-8388608
10:57:12.197062,-8388608,-8388608,-8388608,-8388608,494906,-8388608,-8388608,-8388608
10:57:12.200305,-8388608,-8388608,-8388608,-8388608,499796,-8388608,-8388608,-8388608
10:57:12.204318,-8388608,-8388608,-8388608,-8388608,503319,-8388608,-8388608,-8388608
10:57:12.207755,-8388608,-8388608,-8388608,-8388608,498158,-8388608,-8388608,-8388608
10:57:12.208248,-8388608,-8388608,-8388608,-8388608,491084,-8388608,-8388608,-8388608
10:57:12.208248,-8388608,-8388608,-8388608,-8388608,494811,-8388608,-8388608,-8388608
10:57:12.220057,-8388608,-8388608,-8388608,-8388608,500338,-8388608,-8388608,-8388608
10:57:12.220057,-8388608,-8388608,-8388608,-8388608,502175,-8388608,-8388608,-8388608
10:57:12.220057,-8388608,-8388608,-8388608,-8388608,498073,-8388608,-8388608,-8388608
10:57:12.220057,-8388608,-8388608,-8388608,-8388608,492362,-8388608,-8388608,-8388608
10:57:12.236846,-8388608,-8388608,-8388608,-8388608,497230,-8388608,-8388608,-8388608
10:57:12.236846,-8388608,-8388608,-8388608,-8388608,502139,-8388608,-8388608,-8388608
10:57:12.236846,-8388608,-8388608,-8388608,-8388608,501536,-8388608,-8388608,-8388608
10:57:12.236846,-8388608,-8388608,-8388608,-8388608,496246,-8388608,-8388608,-8388608
10:57:12.253642,-8388608,-8388608,-8388608,-8388608,492572,-8388608,-8388608,-8388608
10:57:12.253642,-8388608,-8388608,-8388608,-8388608,495781,-8388608,-8388608,-8388608
10:57:12.253642,-8388608,-8388608,-8388608,-8388608,501579,-8388608,-8388608,-8388608
10:57:12.253642,-8388608,-8388608,-8388608,-8388608,501708,-8388608,-8388608,-8388608
10:57:12.268632,-8388608,-8388608,-8388608,-8388608,495375,-8388608,-8388608,-8388608
10:57:12.271809,-8388608,-8388608,-8388608,-8388608,492207,-8388608,-8388608,-8388608
10:57:12.271809,-8388608,-8388608,-8388608,-8388608,493720,-8388608,-8388608,-8388608
10:57:12.271809,-8388608,-8388608,-8388608,-8388608,499616,-8388608,-8388608,-8388608
10:57:12.286820,-8388608,-8388608,-8388608,-8388608,503891,-8388608,-8388608,-8388608
10:57:12.286820,-8388608,-8388608,-8388608,-8388608,497852,-8388608,-8388608,-8388608
10:57:12.286820,-8388608,-8388608,-8388608,-8388608,493506,-8388608,-8388608,-8388608
10:57:12.286820,-8388608,-8388608,-8388608,-8388608,495547,-8388608,-8388608,-8388608
10:57:12.286820,-8388608,-8388608,-8388608,-8388608,501461,-8388608,-8388608,-8388608
10:57:12.303457,-8388608,-8388608,-8388608,-8388608,500963,-8388608,-8388608,-8388608
10:57:12.303457,-8388608,-8388608,-8388608,-8388608,496764,-8388608,-8388608,-8388608
10:57:12.303457,-8388608,-8388608,-8388608,-8388608,492784,-8388608,-8388608,-8388608
10:57:12.303457,-8388608,-8388608,-8388608,-8388608,493623,-8388608,-8388608,-8388608
10:57:12.319482,-8388608,-8388608,-8388608,-8388608,498109,-8388608,-8388608,-8388608
10:57:12.323398,-8388608,-8388608,-8388608,-8388608,502441,-8388608,-8388608,-8388608
10:57:12.325030,-8388608,-8388608,-8388608,-8388608,498565,-8388608,-8388608,-8388608
10:57:12.325030,-8388608,-8388608,-8388608,-8388608,493159,-8388608,-8388608,-8388608
10:57:12.336636,-8388608,-8388608,-8388608,-8388608,496003,-8388608,-8388608,-8388608
10:57:12.336636,-8388608,-8388608,-8388608,-8388608,500209,-8388608,-8388608,-8388608
10:57:12.336636,-8388608,-8388608,-8388608,-8388608,502563,-8388608,-8388608,-8388608
10:57:12.336636,-8388608,-8388608,-8388608,-8388608,495987,-8388608,-8388608,-8388608
10:57:12.352733,-8388608,-8388608,-8388608,-8388608,487482,-8388608,-8388608,-8388608
10:57:12.353868,-8388608,-8388608,-8388608,-8388608,493578,-8388608,-8388608,-8388608
10:57:12.353868,-8388608,-8388608,-8388608,-8388608,499534,-8388608,-8388608,-8388608
10:57:12.353868,-8388608,-8388608,-8388608,-8388608,503321,-8388608,-8388608,-8388608
10:57:12.368397,-8388608,-8388608,-8388608,-8388608,499135,-8388608,-8388608,-8388608
10:57:12.370215,-8388608,-8388608,-8388608,-8388608,493022,-8388608,-8388608,-8388608
10:57:12.375720,-8388608,-8388608,-8388608,-8388608,490556,-8388608,-8388608,-8388608
10:57:12.377115,-8388608,-8388608,-8388608,-8388608,498461,-8388608,-8388608,-8388608
10:57:12.377115,-8388608,-8388608,-8388608,-8388608,503005,-8388608,-8388608,-8388608
10:57:12.388982,-8388608,-8388608,-8388608,-8388608,496433,-8388608,-8388608,-8388608
10:57:12.393258,-8388608,-8388608,-8388608,-8388608,491373,-8388608,-8388608,-8388608
10:57:12.396259,-8388608,-8388608,-8388608,-8388608,491631,-8388608,-8388608,-8388608
10:57:12.400084,-8388608,-8388608,-8388608,-8388608,496531,-8388608,-8388608,-8388608
10:57:12.402853,-8388608,-8388608,-8388608,-8388608,500872,-8388608,-8388608,-8388608
10:57:12.402853,-8388608,-8388608,-8388608,-8388608,497646,-8388608,-8388608,-8388608
10:57:12.402853,-8388608,-8388608,-8388608,-8388608,490838,-8388608,-8388608,-8388608
10:57:12.402853,-8388608,-8388608,-8388608,-8388608,493795,-8388608,-8388608,-8388608
10:57:12.420329,-8388608,-8388608,-8388608,-8388608,499832,-8388608,-8388608,-8388608
10:57:12.424329,-8388608,-8388608,-8388608,-8388608,499178,-8388608,-8388608,-8388608
10:57:12.425621,-8388608,-8388608,-8388608,-8388608,493693,-8388608,-8388608,-8388608
10:57:12.425621,-8388608,-8388608,-8388608,-8388608,491672,-8388608,-8388608,-8388608
10:57:12.436084,-8388608,-8388608,-8388608,-8388608,492444,-8388608,-8388608,-8388608
10:57:12.436425,-8388608,-8388608,-8388608,-8388608,496078,-8388608,-8388608,-8388608
10:57:12.436425,-8388608,-8388608,-8388608,-8388608,498517,-8388608,-8388608,-8388608
10:57:12.436425,-8388608,-8388608,-8388608,-8388608,492479,-8388608,-8388608,-8388608
10:57:12.451753,-8388608,-8388608,-8388608,-8388608,487302,-8388608,-8388608,-8388608
10:57:12.453213,-8388608,-8388608,-8388608,-8388608,490420,-8388608,-8388608,-8388608
10:57:12.453213,-8388608,-8388608,-8388608,-8388608,498204,-8388608,-8388608,-8388608
10:57:12.453213,-8388608,-8388608,-8388608,-8388608,498736,-8388608,-8388608,-8388608
10:57:12.468221,-8388608,-8388608,-8388608,-8388608,491652,-8388608,-8388608,-8388608
10:57:12.472333,-8388608,-8388608,-8388608,-8388608,487798,-8388608,-8388608,-8388608
10:57:12.472333,-8388608,-8388608,-8388608,-8388608,490228,-8388608,-8388608,-8388608
10:57:12.472333,-8388608,-8388608,-8388608,-8388608,500205,-8388608,-8388608,-8388608
10:57:12.472333,-8388608,-8388608,-8388608,-8388608,500612,-8388608,-8388608,-8388608
10:57:12.486718,-8388608,-8388608,-8388608,-8388608,491474,-8388608,-8388608,-8388608
10:57:12.486718,-8388608,-8388608,-8388608,-8388608,487199,-8388608,-8388608,-8388608
10:57:12.486718,-8388608,-8388608,-8388608,-8388608,493926,-8388608,-8388608,-8388608
10:57:12.486718,-8388608,-8388608,-8388608,-8388608,501819,-8388608,-8388608,-8388608
10:57:12.503202,-8388608,-8388608,-8388608,-8388608,504017,-8388608,-8388608,-8388608
10:57:12.503202,-8388608,-8388608,-8388608,-8388608,499133,-8388608,-8388608,-8388608
10:57:12.503202,-8388608,-8388608,-8388608,-8388608,492607,-8388608,-8388608,-8388608
10:57:12.503202,-8388608,-8388608,-8388608,-8388608,491110,-8388608,-8388608,-8388608
10:57:12.519999,-8388608,-8388608,-8388608,-8388608,498357,-8388608,-8388608,-8388608
10:57:12.519999,-8388608,-8388608,-8388608,-8388608,500561,-8388608,-8388608,-8388608
10:57:12.519999,-8388608,-8388608,-8388608,-8388608,495608,-8388608,-8388608,-8388608
10:57:12.519999,-8388608,-8388608,-8388608,-8388608,490465,-8388608,-8388608,-8388608
10:57:12.535009,-8388608,-8388608,-8388608,-8388608,492423,-8388608,-8388608,-8388608
10:57:12.540196,-8388608,-8388608,-8388608,-8388608,498257,-8388608,-8388608,-8388608
10:57:12.542828,-8388608,-8388608,-8388608,-8388608,502827,-8388608,-8388608,-8388608
10:57:12.542828,-8388608,-8388608,-8388608,-8388608,500956,-8388608,-8388608,-8388608
10:57:12.551683,-8388608,-8388608,-8388608,-8388608,496101,-8388608,-8388608,-8388608
10:57:12.552995,-8388608,-8388608,-8388608,-8388608,495161,-8388608,-8388608,-8388608
10:57:12.552995,-8388608,-8388608,-8388608,-8388608,495034,-8388608,-8388608,-8388608
10:57:12.552995,-8388608,-8388608,-8388608,-8388608,491393,-8388608,-8388608,-8388608
10:57:12.569371,-8388608,-8388608,-8388608,-8388608,480404,-8388608,-8388608,-8388608
10:57:12.572446,-8388608,-8388608,-8388608,-8388608,465502,-8388608,-8388608,-8388608
10:57:12.572446,-8388608,-8388608,-8388608,-8388608,466326,-8388608,-8388608,-8388608
10:57:12.572446,-8388608,-8388608,-8388608,-8388608,476805,-8388608,-8388608,-8388608
10:57:12.572446,-8388608,-8388608,-8388608,-8388608,483604,-8388608,-8388608,-8388608
10:57:12.587572,-8388608,-8388608,-8388608,-8388608,486836,-8388608,-8388608,-8388608
10:57:12.590034,-8388608,-8388608,-8388608,-8388608,488464,-8388608,-8388608,-8388608
10:57:12.590034,-8388608,-8388608,-8388608,-8388608,494027,-8388608,-8388608,-8388608
10:57:12.590034,-8388608,-8388608,-8388608,-8388608,499519,-8388608,-8388608,-8388608
10:57:12.603460,-8388608,-8388608,-8388608,-8388608,498256,-8388608,-8388608,-8388608
10:57:12.607595,-8388608,-8388608,-8388608,-8388608,492221,-8388608,-8388608,-8388608
10:57:12.612579,-8388608,-8388608,-8388608,-8388608,485294,-8388608,-8388608,-8388608
10:57:12.616491,-8388608,-8388608,-8388608,-8388608,488876,-8388608,-8388608,-8388608
10:57:12.619460,-8388608,-8388608,-8388608,-8388608,498521,-8388608,-8388608,-8388608
10:57:12.619460,-8388608,-8388608,-8388608,-8388608,500779,-8388608,-8388608,-8388608
10:57:12.619460,-8388608,-8388608,-8388608,-8388608,493508,-8388608,-8388608,-8388608
10:57:12.619460,-8388608,-8388608,-8388608,-8388608,489991,-8388608,-8388608,-8388608
10:57:12.634786,-8388608,-8388608,-8388608,-8388608,492655,-8388608,-8388608,-8388608
10:57:12.640069,-8388608,-8388608,-8388608,-8388608,495086,-8388608,-8388608,-8388608
10:57:12.640069,-8388608,-8388608,-8388608,-8388608,499551,-8388608,-8388608,-8388608
10:57:12.640069,-8388608,-8388608,-8388608,-8388608,497046,-8388608,-8388608,-8388608
10:57:12.640069,-8388608,-8388608,-8388608,-8388608,492266,-8388608,-8388608,-8388608
10:57:12.652792,-8388608,-8388608,-8388608,-8388608,493786,-8388608,-8388608,-8388608
10:57:12.652792,-8388608,-8388608,-8388608,-8388608,501097,-8388608,-8388608,-8388608
10:57:12.652792,-8388608,-8388608,-8388608,-8388608,500769,-8388608,-8388608,-8388608
10:57:12.668425,-8388608,-8388608,-8388608,-8388608,494338,-8388608,-8388608,-8388608
10:57:12.672602,-8388608,-8388608,-8388608,-8388608,487736,-8388608,-8388608,-8388608
10:57:12.672602,-8388608,-8388608,-8388608,-8388608,491763,-8388608,-8388608,-8388608
10:57:12.672602,-8388608,-8388608,-8388608,-8388608,497264,-8388608,-8388608,-8388608
10:57:12.672602,-8388608,-8388608,-8388608,-8388608,499910,-8388608,-8388608,-8388608
10:57:12.685797,-8388608,-8388608,-8388608,-8388608,494389,-8388608,-8388608,-8388608
10:57:12.685797,-8388608,-8388608,-8388608,-8388608,489686,-8388608,-8388608,-8388608
10:57:12.685797,-8388608,-8388608,-8388608,-8388608,491554,-8388608,-8388608,-8388608
10:57:12.685797,-8388608,-8388608,-8388608,-8388608,496611,-8388608,-8388608,-8388608
10:57:12.703010,-8388608,-8388608,-8388608,-8388608,497964,-8388608,-8388608,-8388608
10:57:12.703010,-8388608,-8388608,-8388608,-8388608,493613,-8388608,-8388608,-8388608
10:57:12.703010,-8388608,-8388608,-8388608,-8388608,488472,-8388608,-8388608,-8388608
10:57:12.703010,-8388608,-8388608,-8388608,-8388608,491117,-8388608,-8388608,-8388608
10:57:12.719651,-8388608,-8388608,-8388608,-8388608,497061,-8388608,-8388608,-8388608
10:57:12.719651,-8388608,-8388608,-8388608,-8388608,498978,-8388608,-8388608,-8388608
10:57:12.719651,-8388608,-8388608,-8388608,-8388608,492198,-8388608,-8388608,-8388608
10:57:12.719651,-8388608,-8388608,-8388608,-8388608,486959,-8388608,-8388608,-8388608
10:57:12.735275,-8388608,-8388608,-8388608,-8388608,490352,-8388608,-8388608,-8388608
10:57:12.736454,-8388608,-8388608,-8388608,-8388608,496434,-8388608,-8388608,-8388608
10:57:12.736454,-8388608,-8388608,-8388608,-8388608,496562,-8388608,-8388608,-8388608
10:57:12.736454,-8388608,-8388608,-8388608,-8388608,492964,-8388608,-8388608,-8388608
10:57:12.736454,-8388608,-8388608,-8388608,-8388608,488839,-8388608,-8388608,-8388608
10:57:12.756726,-8388608,-8388608,-8388608,-8388608,489249,-8388608,-8388608,-8388608
10:57:12.759024,-8388608,-8388608,-8388608,-8388608,492083,-8388608,-8388608,-8388608
10:57:12.759024,-8388608,-8388608,-8388608,-8388608,492544,-8388608,-8388608,-8388608
10:57:12.759024,-8388608,-8388608,-8388608,-8388608,489498,-8388608,-8388608,-8388608
10:57:12.769821,-8388608,-8388608,-8388608,-8388608,488022,-8388608,-8388608,-8388608
10:57:12.772844,-8388608,-8388608,-8388608,-8388608,490174,-8388608,-8388608,-8388608
10:57:12.772844,-8388608,-8388608,-8388608,-8388608,493149,-8388608,-8388608,-8388608
10:57:12.784602,-8388608,-8388608,-8388608,-8388608,493967,-8388608,-8388608,-8388608
10:57:12.786776,-8388608,-8388608,-8388608,-8388608,490485,-8388608,-8388608,-8388608
10:57:12.791612,-8388608,-8388608,-8388608,-8388608,485075,-8388608,-8388608,-8388608
10:57:12.791612,-8388608,-8388608,-8388608,-8388608,487678,-8388608,-8388608,-8388608
10:57:12.791612,-8388608,-8388608,-8388608,-8388608,495749,-8388608,-8388608,-8388608
10:57:12.803204,-8388608,-8388608,-8388608,-8388608,493903,-8388608,-8388608,-8388608
10:57:12.809669,-8388608,-8388608,-8388608,-8388608,485691,-8388608,-8388608,-8388608
10:57:12.813855,-8388608,-8388608,-8388608,-8388608,478144,-8388608,-8388608,-8388608
10:57:12.816841,-8388608,-8388608,-8388608,-8388608,483058,-8388608,-8388608,-8388608
10:57:12.819553,-8388608,-8388608,-8388608,-8388608,490794,-8388608,-8388608,-8388608
10:57:12.819553,-8388608,-8388608,-8388608,-8388608,491679,-8388608,-8388608,-8388608
10:57:12.819553,-8388608,-8388608,-8388608,-8388608,485299,-8388608,-8388608,-8388608
10:57:12.819553,-8388608,-8388608,-8388608,-8388608,480865,-8388608,-8388608,-8388608
10:57:12.835645,-8388608,-8388608,-8388608,-8388608,480687,-8388608,-8388608,-8388608
10:57:12.836434,-8388608,-8388608,-8388608,-8388608,487565,-8388608,-8388608,-8388608
10:57:12.836434,-8388608,-8388608,-8388608,-8388608,489736,-8388608,-8388608,-8388608
10:57:12.836434,-8388608,-8388608,-8388608,-8388608,485175,-8388608,-8388608,-8388608
10:57:12.851222,-8388608,-8388608,-8388608,-8388608,479256,-8388608,-8388608,-8388608
10:57:12.855312,-8388608,-8388608,-8388608,-8388608,480434,-8388608,-8388608,-8388608
10:57:12.858573,-8388608,-8388608,-8388608,-8388608,486976,-8388608,-8388608,-8388608
10:57:12.858573,-8388608,-8388608,-8388608,-8388608,493473,-8388608,-8388608,-8388608
10:57:12.858573,-8388608,-8388608,-8388608,-8388608,491009,-8388608,-8388608,-8388608
10:57:12.869469,-8388608,-8388608,-8388608,-8388608,483319,-8388608,-8388608,-8388608
10:57:12.872979,-8388608,-8388608,-8388608,-8388608,486339,-8388608,-8388608,-8388608
10:57:12.872979,-8388608,-8388608,-8388608,-8388608,495238,-8388608,-8388608,-8388608
10:57:12.872979,-8388608,-8388608,-8388608,-8388608,495965,-8388608,-8388608,-8388608
10:57:12.886250,-8388608,-8388608,-8388608,-8388608,493214,-8388608,-8388608,-8388608
10:57:12.886250,-8388608,-8388608,-8388608,-8388608,486561,-8388608,-8388608,-8388608
10:57:12.886250,-8388608,-8388608,-8388608,-8388608,489326,-8388608,-8388608,-8388608
10:57:12.886250,-8388608,-8388608,-8388608,-8388608,498389,-8388608,-8388608,-8388608
10:57:12.902629,-8388608,-8388608,-8388608,-8388608,502214,-8388608,-8388608,-8388608
10:57:12.902629,-8388608,-8388608,-8388608,-8388608,494754,-8388608,-8388608,-8388608
10:57:12.902629,-8388608,-8388608,-8388608,-8388608,490458,-8388608,-8388608,-8388608
10:57:12.902629,-8388608,-8388608,-8388608,-8388608,492423,-8388608,-8388608,-8388608
10:57:12.919550,-8388608,-8388608,-8388608,-8388608,498934,-8388608,-8388608,-8388608
10:57:12.919550,-8388608,-8388608,-8388608,-8388608,499942,-8388608,-8388608,-8388608
10:57:12.919550,-8388608,-8388608,-8388608,-8388608,497368,-8388608,-8388608,-8388608
10:57:12.919550,-8388608,-8388608,-8388608,-8388608,491862,-8388608,-8388608,-8388608
10:57:12.934553,-8388608,-8388608,-8388608,-8388608,491888,-8388608,-8388608,-8388608
10:57:12.936308,-8388608,-8388608,-8388608,-8388608,498770,-8388608,-8388608,-8388608
10:57:12.936308,-8388608,-8388608,-8388608,-8388608,502708,-8388608,-8388608,-8388608
10:57:12.936308,-8388608,-8388608,-8388608,-8388608,497716,-8388608,-8388608,-8388608
10:57:12.936308,-8388608,-8388608,-8388608,-8388608,492470,-8388608,-8388608,-8388608
10:57:12.952592,-8388608,-8388608,-8388608,-8388608,493816,-8388608,-8388608,-8388608
10:57:12.952592,-8388608,-8388608,-8388608,-8388608,497646,-8388608,-8388608,-8388608
10:57:12.952592,-8388608,-8388608,-8388608,-8388608,498643,-8388608,-8388608,-8388608
10:57:12.967927,-8388608,-8388608,-8388608,-8388608,497536,-8388608,-8388608,-8388608
10:57:12.971984,-8388608,-8388608,-8388608,-8388608,495161,-8388608,-8388608,-8388608
10:57:12.974600,-8388608,-8388608,-8388608,-8388608,495189,-8388608,-8388608,-8388608
10:57:12.975585,-8388608,-8388608,-8388608,-8388608,501539,-8388608,-8388608,-8388608
10:57:12.975585,-8388608,-8388608,-8388608,-8388608,501799,-8388608,-8388608,-8388608
10:57:12.985547,-8388608,-8388608,-8388608,-8388608,497434,-8388608,-8388608,-8388608
10:57:12.985547,-8388608,-8388608,-8388608,-8388608,492076,-8388608,-8388608,-8388608
10:57:12.985547,-8388608,-8388608,-8388608,-8388608,493984,-8388608,-8388608,-8388608
10:57:12.985547,-8388608,-8388608,-8388608,-8388608,501983,-8388608,-8388608,-8388608
10:57:13.002759,-8388608,-8388608,-8388608,-8388608,504236,-8388608,-8388608,-8388608
10:57:13.006385,-8388608,-8388608,-8388608,-8388608,497366,-8388608,-8388608,-8388608
10:57:13.008547,-8388608,-8388608,-8388608,-8388608,491874,-8388608,-8388608,-8388608
10:57:13.008547,-8388608,-8388608,-8388608,-8388608,494021,-8388608,-8388608,-8388608
10:57:13.018753,-8388608,-8388608,-8388608,-8388608,499906,-8388608,-8388608,-8388608
10:57:13.023653,-8388608,-8388608,-8388608,-8388608,504281,-8388608,-8388608,-8388608
10:57:13.028178,-8388608,-8388608,-8388608,-8388608,501234,-8388608,-8388608,-8388608
10:57:13.031532,-8388608,-8388608,-8388608,-8388608,493850,-8388608,-8388608,-8388608
10:57:13.034597,-8388608,-8388608,-8388608,-8388608,493424,-8388608,-8388608,-8388608
10:57:13.035742,-8388608,-8388608,-8388608,-8388608,498731,-8388608,-8388608,-8388608
10:57:13.035742,-8388608,-8388608,-8388608,-8388608,499842,-8388608,-8388608,-8388608
10:57:13.035742,-8388608,-8388608,-8388608,-8388608,495234,-8388608,-8388608,-8388608
10:57:13.051208,-8388608,-8388608,-8388608,-8388608,494196,-8388608,-8388608,-8388608
10:57:13.052660,-8388608,-8388608,-8388608,-8388608,497014,-8388608,-8388608,-8388608
10:57:13.052660,-8388608,-8388608,-8388608,-8388608,499880,-8388608,-8388608,-8388608
10:57:13.052660,-8388608,-8388608,-8388608,-8388608,503663,-8388608,-8388608,-8388608
10:57:13.052660,-8388608,-8388608,-8388608,-8388608,498871,-8388608,-8388608,-8388608
10:57:13.070767,-8388608,-8388608,-8388608,-8388608,491522,-8388608,-8388608,-8388608
10:57:13.074566,-8388608,-8388608,-8388608,-8388608,493459,-8388608,-8388608,-8388608
10:57:13.074566,-8388608,-8388608,-8388608,-8388608,501071,-8388608,-8388608,-8388608
10:57:13.074566,-8388608,-8388608,-8388608,-8388608,501799,-8388608,-8388608,-8388608
10:57:13.085891,-8388608,-8388608,-8388608,-8388608,499140,-8388608,-8388608,-8388608
10:57:13.085891,-8388608,-8388608,-8388608,-8388608,494691,-8388608,-8388608,-8388608
10:57:13.085891,-8388608,-8388608,-8388608,-8388608,497578,-8388608,-8388608,-8388608
10:57:13.085891,-8388608,-8388608,-8388608,-8388608,504808,-8388608,-8388608,-8388608
10:57:13.102413,-8388608,-8388608,-8388608,-8388608,505689,-8388608,-8388608,-8388608
10:57:13.102413,-8388608,-8388608,-8388608,-8388608,499417,-8388608,-8388608,-8388608
10:57:13.102413,-8388608,-8388608,-8388608,-8388608,494237,-8388608,-8388608,-8388608
10:57:13.102413,-8388608,-8388608,-8388608,-8388608,495479,-8388608,-8388608,-8388608
10:57:13.118897,-8388608,-8388608,-8388608,-8388608,500895,-8388608,-8388608,-8388608
10:57:13.119461,-8388608,-8388608,-8388608,-8388608,502928,-8388608,-8388608,-8388608
10:57:13.119461,-8388608,-8388608,-8388608,-8388608,498933,-8388608,-8388608,-8388608
10:57:13.119461,-8388608,-8388608,-8388608,-8388608,495848,-8388608,-8388608,-8388608
10:57:13.135458,-8388608,-8388608,-8388608,-8388608,499924,-8388608,-8388608,-8388608
10:57:13.136014,-8388608,-8388608,-8388608,-8388608,501809,-8388608,-8388608,-8388608
10:57:13.136014,-8388608,-8388608,-8388608,-8388608,501138,-8388608,-8388608,-8388608
10:57:13.136014,-8388608,-8388608,-8388608,-8388608,498855,-8388608,-8388608,-8388608
10:57:13.151126,-8388608,-8388608,-8388608,-8388608,493316,-8388608,-8388608,-8388608
10:57:13.152716,-8388608,-8388608,-8388608,-8388608,495916,-8388608,-8388608,-8388608
10:57:13.152716,-8388608,-8388608,-8388608,-8388608,504493,-8388608,-8388608,-8388608
10:57:13.152716,-8388608,-8388608,-8388608,-8388608,507696,-8388608,-8388608,-8388608
10:57:13.152716,-8388608,-8388608,-8388608,-8388608,504053,-8388608,-8388608,-8388608
10:57:13.169503,-8388608,-8388608,-8388608,-8388608,498900,-8388608,-8388608,-8388608
10:57:13.173600,-8388608,-8388608,-8388608,-8388608,500121,-8388608,-8388608,-8388608
10:57:13.173600,-8388608,-8388608,-8388608,-8388608,504758,-8388608,-8388608,-8388608
10:57:13.173600,-8388608,-8388608,-8388608,-8388608,505294,-8388608,-8388608,-8388608
10:57:13.187257,-8388608,-8388608,-8388608,-8388608,500087,-8388608,-8388608,-8388608
10:57:13.191238,-8388608,-8388608,-8388608,-8388608,496614,-8388608,-8388608,-8388608
10:57:13.191238,-8388608,-8388608,-8388608,-8388608,498831,-8388608,-8388608,-8388608
10:57:13.191238,-8388608,-8388608,-8388608,-8388608,501598,-8388608,-8388608,-8388608
10:57:13.201940,-8388608,-8388608,-8388608,-8388608,504526,-8388608,-8388608,-8388608
10:57:13.206939,-8388608,-8388608,-8388608,-8388608,500832,-8388608,-8388608,-8388608
10:57:13.206939,-8388608,-8388608,-8388608,-8388608,493809,-8388608,-8388608,-8388608
10:57:13.206939,-8388608,-8388608,-8388608,-8388608,495848,-8388608,-8388608,-8388608
10:57:13.219621,-8388608,-8388608,-8388608,-8388608,505134,-8388608,-8388608,-8388608
10:57:13.222623,-8388608,-8388608,-8388608,-8388608,506095,-8388608,-8388608,-8388608
10:57:13.226542,-8388608,-8388608,-8388608,-8388608,500147,-8388608,-8388608,-8388608
10:57:13.230491,-8388608,-8388608,-8388608,-8388608,496354,-8388608,-8388608,-8388608
10:57:13.234749,-8388608,-8388608,-8388608,-8388608,497536,-8388608,-8388608,-8388608
10:57:13.235556,-8388608,-8388608,-8388608,-8388608,502766,-8388608,-8388608,-8388608
10:57:13.235556,-8388608,-8388608,-8388608,-8388608,504848,-8388608,-8388608,-8388608
10:57:13.235556,-8388608,-8388608,-8388608,-8388608,501399,-8388608,-8388608,-8388608
10:57:13.235556,-8388608,-8388608,-8388608,-8388608,497646,-8388608,-8388608,-8388608
10:57:13.252166,-8388608,-8388608,-8388608,-8388608,501484,-8388608,-8388608,-8388608
10:57:13.252166,-8388608,-8388608,-8388608,-8388608,506436,-8388608,-8388608,-8388608
10:57:13.252166,-8388608,-8388608,-8388608,-8388608,506030,-8388608,-8388608,-8388608
10:57:13.252166,-8388608,-8388608,-8388608,-8388608,501773,-8388608,-8388608,-8388608
10:57:13.268741,-8388608,-8388608,-8388608,-8388608,497405,-8388608,-8388608,-8388608
10:57:13.273827,-8388608,-8388608,-8388608,-8388608,498963,-8388608,-8388608,-8388608
10:57:13.273827,-8388608,-8388608,-8388608,-8388608,503314,-8388608,-8388608,-8388608
10:57:13.273827,-8388608,-8388608,-8388608,-8388608,505604,-8388608,-8388608,-8388608
10:57:13.286044,-8388608,-8388608,-8388608,-8388608,502714,-8388608,-8388608,-8388608
10:57:13.289646,-8388608,-8388608,-8388608,-8388608,498981,-8388608,-8388608,-8388608
10:57:13.289646,-8388608,-8388608,-8388608,-8388608,500259,-8388608,-8388608,-8388608
10:57:13.289646,-8388608,-8388608,-8388608,-8388608,503731,-8388608,-8388608,-8388608
10:57:13.301808,-8388608,-8388608,-8388608,-8388608,505563,-8388608,-8388608,-8388608
10:57:13.301808,-8388608,-8388608,-8388608,-8388608,499156,-8388608,-8388608,-8388608
10:57:13.301808,-8388608,-8388608,-8388608,-8388608,496732,-8388608,-8388608,-8388608
10:57:13.301808,-8388608,-8388608,-8388608,-8388608,498526,-8388608,-8388608,-8388608
10:57:13.318668,-8388608,-8388608,-8388608,-8388608,505949,-8388608,-8388608,-8388608
10:57:13.318668,-8388608,-8388608,-8388608,-8388608,509456,-8388608,-8388608,-8388608
10:57:13.318668,-8388608,-8388608,-8388608,-8388608,499933,-8388608,-8388608,-8388608
10:57:13.318668,-8388608,-8388608,-8388608,-8388608,492791,-8388608,-8388608,-8388608
10:57:13.334082,-8388608,-8388608,-8388608,-8388608,498818,-8388608,-8388608,-8388608
10:57:13.335390,-8388608,-8388608,-8388608,-8388608,506484,-8388608,-8388608,-8388608
10:57:13.335390,-8388608,-8388608,-8388608,-8388608,508013,-8388608,-8388608,-8388608
10:57:13.335390,-8388608,-8388608,-8388608,-8388608,505348,-8388608,-8388608,-8388608
10:57:13.350859,-8388608,-8388608,-8388608,-8388608,500677,-8388608,-8388608,-8388608
10:57:13.352467,-8388608,-8388608,-8388608,-8388608,499833,-8388608,-8388608,-8388608
10:57:13.352467,-8388608,-8388608,-8388608,-8388608,506086,-8388608,-8388608,-8388608
10:57:13.352467,-8388608,-8388608,-8388608,-8388608,508691,-8388608,-8388608,-8388608
10:57:13.352467,-8388608,-8388608,-8388608,-8388608,502358,-8388608,-8388608,-8388608
10:57:13.369542,-8388608,-8388608,-8388608,-8388608,496573,-8388608,-8388608,-8388608
10:57:13.374056,-8388608,-8388608,-8388608,-8388608,499898,-8388608,-8388608,-8388608
10:57:13.374056,-8388608,-8388608,-8388608,-8388608,505255,-8388608,-8388608,-8388608
10:57:13.374056,-8388608,-8388608,-8388608,-8388608,509558,-8388608,-8388608,-8388608
10:57:13.385667,-8388608,-8388608,-8388608,-8388608,502893,-8388608,-8388608,-8388608
10:57:13.389978,-8388608,-8388608,-8388608,-8388608,498914,-8388608,-8388608,-8388608
10:57:13.391098,-8388608,-8388608,-8388608,-8388608,503181,-8388608,-8388608,-8388608
10:57:13.391098,-8388608,-8388608,-8388608,-8388608,506927,-8388608,-8388608,-8388608
10:57:13.401805,-8388608,-8388608,-8388608,-8388608,503986,-8388608,-8388608,-8388608
10:57:13.401805,-8388608,-8388608,-8388608,-8388608,499609,-8388608,-8388608,-8388608
10:57:13.401805,-8388608,-8388608,-8388608,-8388608,494850,-8388608,-8388608,-8388608
10:57:13.401805,-8388608,-8388608,-8388608,-8388608,496928,-8388608,-8388608,-8388608
10:57:13.418516,-8388608,-8388608,-8388608,-8388608,504211,-8388608,-8388608,-8388608
10:57:13.422432,-8388608,-8388608,-8388608,-8388608,506443,-8388608,-8388608,-8388608
10:57:13.424405,-8388608,-8388608,-8388608,-8388608,498903,-8388608,-8388608,-8388608
10:57:13.424405,-8388608,-8388608,-8388608,-8388608,493735,-8388608,-8388608,-8388608
10:57:13.434245,-8388608,-8388608,-8388608,-8388608,498668,-8388608,-8388608,-8388608
10:57:13.438253,-8388608,-8388608,-8388608,-8388608,506784,-8388608,-8388608,-8388608
10:57:13.442182,-8388608,-8388608,-8388608,-8388608,511270,-8388608,-8388608,-8388608
10:57:13.446774,-8388608,-8388608,-8388608,-8388608,504892,-8388608,-8388608,-8388608
10:57:13.450257,-8388608,-8388608,-8388608,-8388608,497304,-8388608,-8388608,-8388608
10:57:13.452243,-8388608,-8388608,-8388608,-8388608,500818,-8388608,-8388608,-8388608
10:57:13.452243,-8388608,-8388608,-8388608,-8388608,505239,-8388608,-8388608,-8388608
10:57:13.452243,-8388608,-8388608,-8388608,-8388608,508743,-8388608,-8388608,-8388608
10:57:13.452243,-8388608,-8388608,-8388608,-8388608,503941,-8388608,-8388608,-8388608
10:57:13.468835,-8388608,-8388608,-8388608,-8388608,499174,-8388608,-8388608,-8388608
10:57:13.474346,-8388608,-8388608,-8388608,-8388608,503357,-8388608,-8388608,-8388608
10:57:13.474346,-8388608,-8388608,-8388608,-8388608,509059,-8388608,-8388608,-8388608
10:57:13.474346,-8388608,-8388608,-8388608,-8388608,510893,-8388608,-8388608,-8388608
10:57:13.486220,-8388608,-8388608,-8388608,-8388608,506376,-8388608,-8388608,-8388608
10:57:13.490424,-8388608,-8388608,-8388608,-8388608,498194,-8388608,-8388608,-8388608
10:57:13.490738,-8388608,-8388608,-8388608,-8388608,499990,-8388608,-8388608,-8388608
10:57:13.490738,-8388608,-8388608,-8388608,-8388608,507214,-8388608,-8388608,-8388608
10:57:13.501321,-8388608,-8388608,-8388608,-8388608,510011,-8388608,-8388608,-8388608
10:57:13.501321,-8388608,-8388608,-8388608,-8388608,505274,-8388608,-8388608,-8388608
10:57:13.501321,-8388608,-8388608,-8388608,-8388608,502547,-8388608,-8388608,-8388608
10:57:13.501321,-8388608,-8388608,-8388608,-8388608,506230,-8388608,-8388608,-8388608
10:57:13.517345,-8388608,-8388608,-8388608,-8388608,514589,-8388608,-8388608,-8388608
10:57:13.518669,-8388608,-8388608,-8388608,-8388608,514613,-8388608,-8388608,-8388608
10:57:13.518669,-8388608,-8388608,-8388608,-8388608,506178,-8388608,-8388608,-8388608
10:57:13.518669,-8388608,-8388608,-8388608,-8388608,497044,-8388608,-8388608,-8388608
10:57:13.534294,-8388608,-8388608,-8388608,-8388608,491672,-8388608,-8388608,-8388608
10:57:13.536206,-8388608,-8388608,-8388608,-8388608,487465,-8388608,-8388608,-8388608
10:57:13.536206,-8388608,-8388608,-8388608,-8388608,483974,-8388608,-8388608,-8388608
10:57:13.536206,-8388608,-8388608,-8388608,-8388608,477418,-8388608,-8388608,-8388608
10:57:13.536206,-8388608,-8388608,-8388608,-8388608,479963,-8388608,-8388608,-8388608
10:57:13.552648,-8388608,-8388608,-8388608,-8388608,488774,-8388608,-8388608,-8388608
10:57:13.552648,-8388608,-8388608,-8388608,-8388608,499633,-8388608,-8388608,-8388608
10:57:13.552648,-8388608,-8388608,-8388608,-8388608,507591,-8388608,-8388608,-8388608
10:57:13.552648,-8388608,-8388608,-8388608,-8388608,503957,-8388608,-8388608,-8388608
10:57:13.568978,-8388608,-8388608,-8388608,-8388608,500760,-8388608,-8388608,-8388608
10:57:13.568978,-8388608,-8388608,-8388608,-8388608,500706,-8388608,-8388608,-8388608
10:57:13.574592,-8388608,-8388608,-8388608,-8388608,505307,-8388608,-8388608,-8388608
10:57:13.574592,-8388608,-8388608,-8388608,-8388608,508009,-8388608,-8388608,-8388608
10:57:13.585480,-8388608,-8388608,-8388608,-8388608,505133,-8388608,-8388608,-8388608
10:57:13.585480,-8388608,-8388608,-8388608,-8388608,499996,-8388608,-8388608,-8388608
10:57:13.585480,-8388608,-8388608,-8388608,-8388608,501813,-8388608,-8388608,-8388608
10:57:13.585480,-8388608,-8388608,-8388608,-8388608,509284,-8388608,-8388608,-8388608
10:57:13.601722,-8388608,-8388608,-8388608,-8388608,511608,-8388608,-8388608,-8388608
10:57:13.605728,-8388608,-8388608,-8388608,-8388608,507669,-8388608,-8388608,-8388608
10:57:13.609081,-8388608,-8388608,-8388608,-8388608,504271,-8388608,-8388608,-8388608
10:57:13.609081,-8388608,-8388608,-8388608,-8388608,507807,-8388608,-8388608,-8388608
10:57:13.618507,-8388608,-8388608,-8388608,-8388608,511964,-8388608,-8388608,-8388608
10:57:13.618507,-8388608,-8388608,-8388608,-8388608,512446,-8388608,-8388608,-8388608
10:57:13.618507,-8388608,-8388608,-8388608,-8388608,506301,-8388608,-8388608,-8388608
10:57:13.618507,-8388608,-8388608,-8388608,-8388608,502861,-8388608,-8388608,-8388608
10:57:13.618507,-8388608,-8388608,-8388608,-8388608,507006,-8388608,-8388608,-8388608
10:57:13.635669,-8388608,-8388608,-8388608,-8388608,513108,-8388608,-8388608,-8388608
10:57:13.641842,-8388608,-8388608,-8388608,-8388608,512584,-8388608,-8388608,-8388608
10:57:13.641842,-8388608,-8388608,-8388608,-8388608,507341,-8388608,-8388608,-8388608
10:57:13.641842,-8388608,-8388608,-8388608,-8388608,501858,-8388608,-8388608,-8388608
10:57:13.653753,-8388608,-8388608,-8388608,-8388608,504207,-8388608,-8388608,-8388608
10:57:13.657737,-8388608,-8388608,-8388608,-8388608,509695,-8388608,-8388608,-8388608
10:57:13.662053,-8388608,-8388608,-8388608,-8388608,512005,-8388608,-8388608,-8388608
10:57:13.666383,-8388608,-8388608,-8388608,-8388608,511017,-8388608,-8388608,-8388608
10:57:13.668818,-8388608,-8388608,-8388608,-8388608,507737,-8388608,-8388608,-8388608
10:57:13.674923,-8388608,-8388608,-8388608,-8388608,506343,-8388608,-8388608,-8388608
10:57:13.674923,-8388608,-8388608,-8388608,-8388608,509542,-8388608,-8388608,-8388608
10:57:13.674923,-8388608,-8388608,-8388608,-8388608,509506,-8388608,-8388608,-8388608
10:57:13.685667,-8388608,-8388608,-8388608,-8388608,505974,-8388608,-8388608,-8388608
10:57:13.685667,-8388608,-8388608,-8388608,-8388608,506447,-8388608,-8388608,-8388608
10:57:13.685667,-8388608,-8388608,-8388608,-8388608,508802,-8388608,-8388608,-8388608
10:57:13.685667,-8388608,-8388608,-8388608,-8388608,512621,-8388608,-8388608,-8388608
10:57:13.702741,-8388608,-8388608,-8388608,-8388608,513101,-8388608,-8388608,-8388608
10:57:13.705747,-8388608,-8388608,-8388608,-8388608,506860,-8388608,-8388608,-8388608
10:57:13.708556,-8388608,-8388608,-8388608,-8388608,502973,-8388608,-8388608,-8388608
10:57:13.708556,-8388608,-8388608,-8388608,-8388608,505884,-8388608,-8388608,-8388608
10:57:13.717198,-8388608,-8388608,-8388608,-8388608,512421,-8388608,-8388608,-8388608
10:57:13.720117,-8388608,-8388608,-8388608,-8388608,515589,-8388608,-8388608,-8388608
10:57:13.720117,-8388608,-8388608,-8388608,-8388608,509490,-8388608,-8388608,-8388608
10:57:13.720117,-8388608,-8388608,-8388608,-8388608,504644,-8388608,-8388608,-8388608
10:57:13.733838,-8388608,-8388608,-8388608,-8388608,504459,-8388608,-8388608,-8388608
10:57:13.735021,-8388608,-8388608,-8388608,-8388608,509089,-8388608,-8388608,-8388608
10:57:13.735021,-8388608,-8388608,-8388608,-8388608,509664,-8388608,-8388608,-8388608
10:57:13.735021,-8388608,-8388608,-8388608,-8388608,503212,-8388608,-8388608,-8388608
10:57:13.735021,-8388608,-8388608,-8388608,-8388608,500809,-8388608,-8388608,-8388608
10:57:13.751893,-8388608,-8388608,-8388608,-8388608,504736,-8388608,-8388608,-8388608
10:57:13.751893,-8388608,-8388608,-8388608,-8388608,509513,-8388608,-8388608,-8388608
10:57:13.751893,-8388608,-8388608,-8388608,-8388608,511483,-8388608,-8388608,-8388608
10:57:13.751893,-8388608,-8388608,-8388608,-8388608,507548,-8388608,-8388608,-8388608
10:57:13.768589,-8388608,-8388608,-8388608,-8388608,499251,-8388608,-8388608,-8388608
10:57:13.768589,-8388608,-8388608,-8388608,-8388608,501731,-8388608,-8388608,-8388608
10:57:13.775197,-8388608,-8388608,-8388608,-8388608,505679,-8388608,-8388608,-8388608
10:57:13.775197,-8388608,-8388608,-8388608,-8388608,508578,-8388608,-8388608,-8388608
10:57:13.785389,-8388608,-8388608,-8388608,-8388608,504380,-8388608,-8388608,-8388608
10:57:13.785389,-8388608,-8388608,-8388608,-8388608,498724,-8388608,-8388608,-8388608
10:57:13.785389,-8388608,-8388608,-8388608,-8388608,501939,-8388608,-8388608,-8388608
10:57:13.785389,-8388608,-8388608,-8388608,-8388608,509196,-8388608,-8388608,-8388608
10:57:13.802038,-8388608,-8388608,-8388608,-8388608,507928,-8388608,-8388608,-8388608
10:57:13.802038,-8388608,-8388608,-8388608,-8388608,502494,-8388608,-8388608,-8388608
10:57:13.802038,-8388608,-8388608,-8388608,-8388608,498451,-8388608,-8388608,-8388608
10:57:13.802038,-8388608,-8388608,-8388608,-8388608,500258,-8388608,-8388608,-8388608
10:57:13.818202,-8388608,-8388608,-8388608,-8388608,507518,-8388608,-8388608,-8388608
10:57:13.821202,-8388608,-8388608,-8388608,-8388608,510568,-8388608,-8388608,-8388608
10:57:13.824841,-8388608,-8388608,-8388608,-8388608,505623,-8388608,-8388608,-8388608
10:57:13.824841,-8388608,-8388608,-8388608,-8388608,499343,-8388608,-8388608,-8388608
10:57:13.833748,-8388608,-8388608,-8388608,-8388608,499840,-8388608,-8388608,-8388608
10:57:13.835205,-8388608,-8388608,-8388608,-8388608,508123,-8388608,-8388608,-8388608
10:57:13.841206,-8388608,-8388608,-8388608,-8388608,511343,-8388608,-8388608,-8388608
10:57:13.841206,-8388608,-8388608,-8388608,-8388608,506524,-8388608,-8388608,-8388608
10:57:13.841206,-8388608,-8388608,-8388608,-8388608,504307,-8388608,-8388608,-8388608
10:57:13.853767,-8388608,-8388608,-8388608,-8388608,508219,-8388608,-8388608,-8388608
10:57:13.858407,-8388608,-8388608,-8388608,-8388608,511641,-8388608,-8388608,-8388608
10:57:13.862237,-8388608,-8388608,-8388608,-8388608,513750,-8388608,-8388608,-8388608
10:57:13.866240,-8388608,-8388608,-8388608,-8388608,513350,-8388608,-8388608,-8388608
10:57:13.868642,-8388608,-8388608,-8388608,-8388608,510626,-8388608,-8388608,-8388608
10:57:13.869348,-8388608,-8388608,-8388608,-8388608,512628,-8388608,-8388608,-8388608
10:57:13.875465,-8388608,-8388608,-8388608,-8388608,516905,-8388608,-8388608,-8388608
10:57:13.875465,-8388608,-8388608,-8388608,-8388608,520926,-8388608,-8388608,-8388608
10:57:13.885180,-8388608,-8388608,-8388608,-8388608,515709,-8388608,-8388608,-8388608
10:57:13.885180,-8388608,-8388608,-8388608,-8388608,511601,-8388608,-8388608,-8388608
10:57:13.885180,-8388608,-8388608,-8388608,-8388608,512407,-8388608,-8388608,-8388608
10:57:13.885180,-8388608,-8388608,-8388608,-8388608,516416,-8388608,-8388608,-8388608
10:57:13.900352,-8388608,-8388608,-8388608,-8388608,521073,-8388608,-8388608,-8388608
10:57:13.901896,-8388608,-8388608,-8388608,-8388608,518131,-8388608,-8388608,-8388608
10:57:13.901896,-8388608,-8388608,-8388608,-8388608,514752,-8388608,-8388608,-8388608
10:57:13.901896,-8388608,-8388608,-8388608,-8388608,516846,-8388608,-8388608,-8388608
10:57:13.918087,-8388608,-8388608,-8388608,-8388608,519678,-8388608,-8388608,-8388608
10:57:13.922085,-8388608,-8388608,-8388608,-8388608,521756,-8388608,-8388608,-8388608
10:57:13.924604,-8388608,-8388608,-8388608,-8388608,517326,-8388608,-8388608,-8388608
10:57:13.924604,-8388608,-8388608,-8388608,-8388608,512506,-8388608,-8388608,-8388608
10:57:13.933834,-8388608,-8388608,-8388608,-8388608,515339,-8388608,-8388608,-8388608
10:57:13.935393,-8388608,-8388608,-8388608,-8388608,520244,-8388608,-8388608,-8388608
10:57:13.935393,-8388608,-8388608,-8388608,-8388608,520393,-8388608,-8388608,-8388608
10:57:13.935393,-8388608,-8388608,-8388608,-8388608,515480,-8388608,-8388608,-8388608
10:57:13.935393,-8388608,-8388608,-8388608,-8388608,512334,-8388608,-8388608,-8388608
10:57:13.951986,-8388608,-8388608,-8388608,-8388608,518046,-8388608,-8388608,-8388608
10:57:13.951986,-8388608,-8388608,-8388608,-8388608,526259,-8388608,-8388608,-8388608
10:57:13.951986,-8388608,-8388608,-8388608,-8388608,525133,-8388608,-8388608,-8388608
10:57:13.951986,-8388608,-8388608,-8388608,-8388608,516819,-8388608,-8388608,-8388608
10:57:13.968742,-8388608,-8388608,-8388608,-8388608,511364,-8388608,-8388608,-8388608
10:57:13.968742,-8388608,-8388608,-8388608,-8388608,516133,-8388608,-8388608,-8388608
10:57:13.975805,-8388608,-8388608,-8388608,-8388608,523004,-8388608,-8388608,-8388608
10:57:13.975805,-8388608,-8388608,-8388608,-8388608,524742,-8388608,-8388608,-8388608
10:57:13.985003,-8388608,-8388608,-8388608,-8388608,521561,-8388608,-8388608,-8388608
10:57:13.985003,-8388608,-8388608,-8388608,-8388608,516337,-8388608,-8388608,-8388608
10:57:13.985003,-8388608,-8388608,-8388608,-8388608,518216,-8388608,-8388608,-8388608
10:57:13.985003,-8388608,-8388608,-8388608,-8388608,522889,-8388608,-8388608,-8388608
10:57:14.001628,-8388608,-8388608,-8388608,-8388608,525336,-8388608,-8388608,-8388608
10:57:14.001628,-8388608,-8388608,-8388608,-8388608,518565,-8388608,-8388608,-8388608
10:57:14.001628,-8388608,-8388608,-8388608,-8388608,514014,-8388608,-8388608,-8388608
10:57:14.001628,-8388608,-8388608,-8388608,-8388608,517848,-8388608,-8388608,-8388608
10:57:14.016926,-8388608,-8388608,-8388608,-8388608,523360,-8388608,-8388608,-8388608
10:57:14.018663,-8388608,-8388608,-8388608,-8388608,522294,-8388608,-8388608,-8388608
10:57:14.018663,-8388608,-8388608,-8388608,-8388608,518068,-8388608,-8388608,-8388608
10:57:14.018663,-8388608,-8388608,-8388608,-8388608,516420,-8388608,-8388608,-8388608
10:57:14.033653,-8388608,-8388608,-8388608,-8388608,518590,-8388608,-8388608,-8388608
10:57:14.036665,-8388608,-8388608,-8388608,-8388608,522534,-8388608,-8388608,-8388608
10:57:14.040897,-8388608,-8388608,-8388608,-8388608,524630,-8388608,-8388608,-8388608
10:57:14.043198,-8388608,-8388608,-8388608,-8388608,519494,-8388608,-8388608,-8388608
10:57:14.051304,-8388608,-8388608,-8388608,-8388608,517664,-8388608,-8388608,-8388608
10:57:14.053679,-8388608,-8388608,-8388608,-8388608,519088,-8388608,-8388608,-8388608
10:57:14.057679,-8388608,-8388608,-8388608,-8388608,522874,-8388608,-8388608,-8388608
10:57:14.061523,-8388608,-8388608,-8388608,-8388608,525799,-8388608,-8388608,-8388608
10:57:14.065506,-8388608,-8388608,-8388608,-8388608,520924,-8388608,-8388608,-8388608
10:57:14.067966,-8388608,-8388608,-8388608,-8388608,514927,-8388608,-8388608,-8388608
10:57:14.067966,-8388608,-8388608,-8388608,-8388608,517285,-8388608,-8388608,-8388608
10:57:14.076085,-8388608,-8388608,-8388608,-8388608,526034,-8388608,-8388608,-8388608
10:57:14.076085,-8388608,-8388608,-8388608,-8388608,527641,-8388608,-8388608,-8388608
10:57:14.084973,-8388608,-8388608,-8388608,-8388608,521382,-8388608,-8388608,-8388608
10:57:14.084973,-8388608,-8388608,-8388608,-8388608,519868,-8388608,-8388608,-8388608
10:57:14.084973,-8388608,-8388608,-8388608,-8388608,520331,-8388608,-8388608,-8388608
10:57:14.084973,-8388608,-8388608,-8388608,-8388608,523002,-8388608,-8388608,-8388608
10:57:14.101143,-8388608,-8388608,-8388608,-8388608,524165,-8388608,-8388608,-8388608
10:57:14.101494,-8388608,-8388608,-8388608,-8388608,519174,-8388608,-8388608,-8388608
10:57:14.101494,-8388608,-8388608,-8388608,-8388608,517109,-8388608,-8388608,-8388608
10:57:14.101494,-8388608,-8388608,-8388608,-8388608,521627,-8388608,-8388608,-8388608
10:57:14.116780,-8388608,-8388608,-8388608,-8388608,526469,-8388608,-8388608,-8388608
10:57:14.118292,-8388608,-8388608,-8388608,-8388608,526485,-8388608,-8388608,-8388608
10:57:14.118292,-8388608,-8388608,-8388608,-8388608,521721,-8388608,-8388608,-8388608
10:57:14.118292,-8388608,-8388608,-8388608,-8388608,515887,-8388608,-8388608,-8388608
10:57:14.133644,-8388608,-8388608,-8388608,-8388608,518661,-8388608,-8388608,-8388608
10:57:14.137652,-8388608,-8388608,-8388608,-8388608,525694,-8388608,-8388608,-8388608
10:57:14.139653,-8388608,-8388608,-8388608,-8388608,529966,-8388608,-8388608,-8388608
10:57:14.140928,-8388608,-8388608,-8388608,-8388608,522824,-8388608,-8388608,-8388608
10:57:14.140928,-8388608,-8388608,-8388608,-8388608,516887,-8388608,-8388608,-8388608
10:57:14.151670,-8388608,-8388608,-8388608,-8388608,517789,-8388608,-8388608,-8388608
10:57:14.151670,-8388608,-8388608,-8388608,-8388608,523718,-8388608,-8388608,-8388608
10:57:14.151670,-8388608,-8388608,-8388608,-8388608,527471,-8388608,-8388608,-8388608
10:57:14.151670,-8388608,-8388608,-8388608,-8388608,523371,-8388608,-8388608,-8388608
10:57:14.168374,-8388608,-8388608,-8388608,-8388608,519148,-8388608,-8388608,-8388608
10:57:14.168374,-8388608,-8388608,-8388608,-8388608,519632,-8388608,-8388608,-8388608
10:57:14.176483,-8388608,-8388608,-8388608,-8388608,524351,-8388608,-8388608,-8388608
10:57:14.176483,-8388608,-8388608,-8388608,-8388608,528773,-8388608,-8388608,-8388608
10:57:14.184695,-8388608,-8388608,-8388608,-8388608,520898,-8388608,-8388608,-8388608
10:57:14.184695,-8388608,-8388608,-8388608,-8388608,516750,-8388608,-8388608,-8388608
10:57:14.184695,-8388608,-8388608,-8388608,-8388608,519843,-8388608,-8388608,-8388608
10:57:14.184695,-8388608,-8388608,-8388608,-8388608,523338,-8388608,-8388608,-8388608
10:57:14.200302,-8388608,-8388608,-8388608,-8388608,525791,-8388608,-8388608,-8388608
10:57:14.201943,-8388608,-8388608,-8388608,-8388608,519830,-8388608,-8388608,-8388608
10:57:14.201943,-8388608,-8388608,-8388608,-8388608,516607,-8388608,-8388608,-8388608
10:57:14.201943,-8388608,-8388608,-8388608,-8388608,520960,-8388608,-8388608,-8388608
10:57:14.217844,-8388608,-8388608,-8388608,-8388608,526288,-8388608,-8388608,-8388608
10:57:14.218416,-8388608,-8388608,-8388608,-8388608,526236,-8388608,-8388608,-8388608
10:57:14.218416,-8388608,-8388608,-8388608,-8388608,523245,-8388608,-8388608,-8388608
10:57:14.218416,-8388608,-8388608,-8388608,-8388608,521072,-8388608,-8388608,-8388608
10:57:14.218416,-8388608,-8388608,-8388608,-8388608,521308,-8388608,-8388608,-8388608
10:57:14.235176,-8388608,-8388608,-8388608,-8388608,527639,-8388608,-8388608,-8388608
10:57:14.235176,-8388608,-8388608,-8388608,-8388608,526958,-8388608,-8388608,-8388608
10:57:14.235176,-8388608,-8388608,-8388608,-8388608,519897,-8388608,-8388608,-8388608
10:57:14.235176,-8388608,-8388608,-8388608,-8388608,517700,-8388608,-8388608,-8388608
10:57:14.253237,-8388608,-8388608,-8388608,-8388608,520119,-8388608,-8388608,-8388608
10:57:14.256236,-8388608,-8388608,-8388608,-8388608,525836,-8388608,-8388608,-8388608
10:57:14.260462,-8388608,-8388608,-8388608,-8388608,524509,-8388608,-8388608,-8388608
10:57:14.261339,-8388608,-8388608,-8388608,-8388608,520960,-8388608,-8388608,-8388608
10:57:14.269510,-8388608,-8388608,-8388608,-8388608,516323,-8388608,-8388608,-8388608
10:57:14.274086,-8388608,-8388608,-8388608,-8388608,521976,-8388608,-8388608,-8388608
10:57:14.276435,-8388608,-8388608,-8388608,-8388608,526380,-8388608,-8388608,-8388608
10:57:14.280266,-8388608,-8388608,-8388608,-8388608,526621,-8388608,-8388608,-8388608
10:57:14.284333,-8388608,-8388608,-8388608,-8388608,522691,-8388608,-8388608,-8388608
10:57:14.284768,-8388608,-8388608,-8388608,-8388608,516580,-8388608,-8388608,-8388608
10:57:14.284768,-8388608,-8388608,-8388608,-8388608,521017,-8388608,-8388608,-8388608
10:57:14.284768,-8388608,-8388608,-8388608,-8388608,528320,-8388608,-8388608,-8388608
10:57:14.301436,-8388608,-8388608,-8388608,-8388608,527875,-8388608,-8388608,-8388608
10:57:14.301436,-8388608,-8388608,-8388608,-8388608,520043,-8388608,-8388608,-8388608
10:57:14.301436,-8388608,-8388608,-8388608,-8388608,515096,-8388608,-8388608,-8388608
10:57:14.301436,-8388608,-8388608,-8388608,-8388608,518407,-8388608,-8388608,-8388608
10:57:14.301436,-8388608,-8388608,-8388608,-8388608,525366,-8388608,-8388608,-8388608
10:57:14.318382,-8388608,-8388608,-8388608,-8388608,524924,-8388608,-8388608,-8388608
10:57:14.318382,-8388608,-8388608,-8388608,-8388608,518614,-8388608,-8388608,-8388608
10:57:14.318382,-8388608,-8388608,-8388608,-8388608,512648,-8388608,-8388608,-8388608
10:57:14.318382,-8388608,-8388608,-8388608,-8388608,519586,-8388608,-8388608,-8388608
10:57:14.334694,-8388608,-8388608,-8388608,-8388608,527229,-8388608,-8388608,-8388608
10:57:14.334694,-8388608,-8388608,-8388608,-8388608,528473,-8388608,-8388608,-8388608
10:57:14.334694,-8388608,-8388608,-8388608,-8388608,524137,-8388608,-8388608,-8388608
10:57:14.350079,-8388608,-8388608,-8388608,-8388608,517026,-8388608,-8388608,-8388608
10:57:14.353085,-8388608,-8388608,-8388608,-8388608,518524,-8388608,-8388608,-8388608
10:57:14.356782,-8388608,-8388608,-8388608,-8388608,523559,-8388608,-8388608,-8388608
10:57:14.357242,-8388608,-8388608,-8388608,-8388608,524790,-8388608,-8388608,-8388608
10:57:14.357242,-8388608,-8388608,-8388608,-8388608,521043,-8388608,-8388608,-8388608
10:57:14.367977,-8388608,-8388608,-8388608,-8388608,516774,-8388608,-8388608,-8388608
10:57:14.367977,-8388608,-8388608,-8388608,-8388608,518889,-8388608,-8388608,-8388608
10:57:14.376486,-8388608,-8388608,-8388608,-8388608,524211,-8388608,-8388608,-8388608
10:57:14.376486,-8388608,-8388608,-8388608,-8388608,525547,-8388608,-8388608,-8388608
10:57:14.384493,-8388608,-8388608,-8388608,-8388608,520021,-8388608,-8388608,-8388608
10:57:14.384493,-8388608,-8388608,-8388608,-8388608,514188,-8388608,-8388608,-8388608
10:57:14.384493,-8388608,-8388608,-8388608,-8388608,517067,-8388608,-8388608,-8388608
10:57:14.384493,-8388608,-8388608,-8388608,-8388608,524042,-8388608,-8388608,-8388608
10:57:14.400028,-8388608,-8388608,-8388608,-8388608,524331,-8388608,-8388608,-8388608
10:57:14.401926,-8388608,-8388608,-8388608,-8388608,518853,-8388608,-8388608,-8388608
10:57:14.401926,-8388608,-8388608,-8388608,-8388608,512461,-8388608,-8388608,-8388608
10:57:14.401926,-8388608,-8388608,-8388608,-8388608,517086,-8388608,-8388608,-8388608
10:57:14.401926,-8388608,-8388608,-8388608,-8388608,524608,-8388608,-8388608,-8388608
10:57:14.418160,-8388608,-8388608,-8388608,-8388608,526764,-8388608,-8388608,-8388608
10:57:14.418160,-8388608,-8388608,-8388608,-8388608,523581,-8388608,-8388608,-8388608
10:57:14.418160,-8388608,-8388608,-8388608,-8388608,515733,-8388608,-8388608,-8388608
10:57:14.433218,-8388608,-8388608,-8388608,-8388608,517062,-8388608,-8388608,-8388608
10:57:14.434601,-8388608,-8388608,-8388608,-8388608,523413,-8388608,-8388608,-8388608
10:57:14.434601,-8388608,-8388608,-8388608,-8388608,525461,-8388608,-8388608,-8388608
10:57:14.434601,-8388608,-8388608,-8388608,-8388608,522908,-8388608,-8388608,-8388608
10:57:14.434601,-8388608,-8388608,-8388608,-8388608,517227,-8388608,-8388608,-8388608
10:57:14.452122,-8388608,-8388608,-8388608,-8388608,518514,-8388608,-8388608,-8388608
10:57:14.452122,-8388608,-8388608,-8388608,-8388608,522963,-8388608,-8388608,-8388608
10:57:14.452122,-8388608,-8388608,-8388608,-8388608,522764,-8388608,-8388608,-8388608
10:57:14.452122,-8388608,-8388608,-8388608,-8388608,516468,-8388608,-8388608,-8388608
10:57:14.467744,-8388608,-8388608,-8388608,-8388608,513305,-8388608,-8388608,-8388608
10:57:14.471742,-8388608,-8388608,-8388608,-8388608,515046,-8388608,-8388608,-8388608
10:57:14.476465,-8388608,-8388608,-8388608,-8388608,519102,-8388608,-8388608,-8388608
10:57:14.479870,-8388608,-8388608,-8388608,-8388608,521116,-8388608,-8388608,-8388608
10:57:14.484251,-8388608,-8388608,-8388608,-8388608,514636,-8388608,-8388608,-8388608
10:57:14.489133,-8388608,-8388608,-8388608,-8388608,509147,-8388608,-8388608,-8388608
10:57:14.493076,-8388608,-8388608,-8388608,-8388608,512905,-8388608,-8388608,-8388608
10:57:14.497055,-8388608,-8388608,-8388608,-8388608,518869,-8388608,-8388608,-8388608
10:57:14.499922,-8388608,-8388608,-8388608,-8388608,521509,-8388608,-8388608,-8388608
10:57:14.501183,-8388608,-8388608,-8388608,-8388608,515748,-8388608,-8388608,-8388608
10:57:14.501183,-8388608,-8388608,-8388608,-8388608,511873,-8388608,-8388608,-8388608
10:57:14.501183,-8388608,-8388608,-8388608,-8388608,518137,-8388608,-8388608,-8388608
10:57:14.516807,-8388608,-8388608,-8388608,-8388608,522331,-8388608,-8388608,-8388608
10:57:14.518405,-8388608,-8388608,-8388608,-8388608,521485,-8388608,-8388608,-8388608
10:57:14.518405,-8388608,-8388608,-8388608,-8388608,517781,-8388608,-8388608,-8388608
10:57:14.518405,-8388608,-8388608,-8388608,-8388608,509786,-8388608,-8388608,-8388608
10:57:14.518405,-8388608,-8388608,-8388608,-8388608,511320,-8388608,-8388608,-8388608
10:57:14.537583,-8388608,-8388608,-8388608,-8388608,518718,-8388608,-8388608,-8388608
10:57:14.541606,-8388608,-8388608,-8388608,-8388608,522916,-8388608,-8388608,-8388608
10:57:14.544817,-8388608,-8388608,-8388608,-8388608,518542,-8388608,-8388608,-8388608
10:57:14.544817,-8388608,-8388608,-8388608,-8388608,511876,-8388608,-8388608,-8388608
10:57:14.551381,-8388608,-8388608,-8388608,-8388608,514686,-8388608,-8388608,-8388608
10:57:14.551381,-8388608,-8388608,-8388608,-8388608,522639,-8388608,-8388608,-8388608
10:57:14.551381,-8388608,-8388608,-8388608,-8388608,522057,-8388608,-8388608,-8388608
10:57:14.551381,-8388608,-8388608,-8388608,-8388608,514974,-8388608,-8388608,-8388608
10:57:14.568451,-8388608,-8388608,-8388608,-8388608,512059,-8388608,-8388608,-8388608
10:57:14.571665,-8388608,-8388608,-8388608,-8388608,516658,-8388608,-8388608,-8388608
10:57:14.576596,-8388608,-8388608,-8388608,-8388608,523231,-8388608,-8388608,-8388608
10:57:14.576596,-8388608,-8388608,-8388608,-8388608,521353,-8388608,-8388608,-8388608
10:57:14.583942,-8388608,-8388608,-8388608,-8388608,515293,-8388608,-8388608,-8388608
10:57:14.583942,-8388608,-8388608,-8388608,-8388608,512398,-8388608,-8388608,-8388608
10:57:14.583942,-8388608,-8388608,-8388608,-8388608,520725,-8388608,-8388608,-8388608
10:57:14.583942,-8388608,-8388608,-8388608,-8388608,526819,-8388608,-8388608,-8388608
10:57:14.599612,-8388608,-8388608,-8388608,-8388608,523273,-8388608,-8388608,-8388608
10:57:14.600925,-8388608,-8388608,-8388608,-8388608,509988,-8388608,-8388608,-8388608
10:57:14.600925,-8388608,-8388608,-8388608,-8388608,498484,-8388608,-8388608,-8388608
10:57:14.600925,-8388608,-8388608,-8388608,-8388608,494851,-8388608,-8388608,-8388608
10:57:14.600925,-8388608,-8388608,-8388608,-8388608,498667,-8388608,-8388608,-8388608
10:57:14.617791,-8388608,-8388608,-8388608,-8388608,495207,-8388608,-8388608,-8388608
10:57:14.617791,-8388608,-8388608,-8388608,-8388608,488803,-8388608,-8388608,-8388608
10:57:14.617791,-8388608,-8388608,-8388608,-8388608,489446,-8388608,-8388608,-8388608
10:57:14.617791,-8388608,-8388608,-8388608,-8388608,495846,-8388608,-8388608,-8388608
10:57:14.634337,-8388608,-8388608,-8388608,-8388608,512083,-8388608,-8388608,-8388608
10:57:14.634337,-8388608,-8388608,-8388608,-8388608,521219,-8388608,-8388608,-8388608
10:57:14.634337,-8388608,-8388608,-8388608,-8388608,512816,-8388608,-8388608,-8388608
10:57:14.634337,-8388608,-8388608,-8388608,-8388608,504596,-8388608,-8388608,-8388608
10:57:14.650455,-8388608,-8388608,-8388608,-8388608,507199,-8388608,-8388608,-8388608
10:57:14.650455,-8388608,-8388608,-8388608,-8388608,513268,-8388608,-8388608,-8388608
10:57:14.650455,-8388608,-8388608,-8388608,-8388608,518496,-8388608,-8388608,-8388608
10:57:14.650455,-8388608,-8388608,-8388608,-8388608,515878,-8388608,-8388608,-8388608
10:57:14.668242,-8388608,-8388608,-8388608,-8388608,508008,-8388608,-8388608,-8388608
10:57:14.672152,-8388608,-8388608,-8388608,-8388608,509704,-8388608,-8388608,-8388608
10:57:14.672152,-8388608,-8388608,-8388608,-8388608,516193,-8388608,-8388608,-8388608
10:57:14.676772,-8388608,-8388608,-8388608,-8388608,518306,-8388608,-8388608,-8388608
10:57:14.683124,-8388608,-8388608,-8388608,-8388608,510388,-8388608,-8388608,-8388608
10:57:14.687124,-8388608,-8388608,-8388608,-8388608,507721,-8388608,-8388608,-8388608
10:57:14.692413,-8388608,-8388608,-8388608,-8388608,513838,-8388608,-8388608,-8388608
10:57:14.696431,-8388608,-8388608,-8388608,-8388608,518118,-8388608,-8388608,-8388608
10:57:14.700135,-8388608,-8388608,-8388608,-8388608,515657,-8388608,-8388608,-8388608
10:57:14.701089,-8388608,-8388608,-8388608,-8388608,509405,-8388608,-8388608,-8388608
10:57:14.701089,-8388608,-8388608,-8388608,-8388608,510001,-8388608,-8388608,-8388608
10:57:14.701089,-8388608,-8388608,-8388608,-8388608,510646,-8388608,-8388608,-8388608
10:57:14.701089,-8388608,-8388608,-8388608,-8388608,515934,-8388608,-8388608,-8388608
10:57:14.717682,-8388608,-8388608,-8388608,-8388608,517286,-8388608,-8388608,-8388608
10:57:14.717682,-8388608,-8388608,-8388608,-8388608,511723,-8388608,-8388608,-8388608
10:57:14.717682,-8388608,-8388608,-8388608,-8388608,507903,-8388608,-8388608,-8388608
10:57:14.717682,-8388608,-8388608,-8388608,-8388608,509658,-8388608,-8388608,-8388608
10:57:14.734562,-8388608,-8388608,-8388608,-8388608,514754,-8388608,-8388608,-8388608
10:57:14.734562,-8388608,-8388608,-8388608,-8388608,514553,-8388608,-8388608,-8388608
10:57:14.734562,-8388608,-8388608,-8388608,-8388608,510821,-8388608,-8388608,-8388608
10:57:14.734562,-8388608,-8388608,-8388608,-8388608,506412,-8388608,-8388608,-8388608
10:57:14.751506,-8388608,-8388608,-8388608,-8388608,509729,-8388608,-8388608,-8388608
10:57:14.751506,-8388608,-8388608,-8388608,-8388608,513961,-8388608,-8388608,-8388608
10:57:14.751506,-8388608,-8388608,-8388608,-8388608,513632,-8388608,-8388608,-8388608
10:57:14.751506,-8388608,-8388608,-8388608,-8388608,508623,-8388608,-8388608,-8388608
10:57:14.767962,-8388608,-8388608,-8388608,-8388608,503747,-8388608,-8388608,-8388608
10:57:14.767962,-8388608,-8388608,-8388608,-8388608,509221,-8388608,-8388608,-8388608
10:57:14.767962,-8388608,-8388608,-8388608,-8388608,514701,-8388608,-8388608,-8388608
10:57:14.777047,-8388608,-8388608,-8388608,-8388608,516862,-8388608,-8388608,-8388608
10:57:14.783862,-8388608,-8388608,-8388608,-8388608,508078,-8388608,-8388608,-8388608
10:57:14.787780,-8388608,-8388608,-8388608,-8388608,499628,-8388608,-8388608,-8388608
10:57:14.790297,-8388608,-8388608,-8388608,-8388608,504498,-8388608,-8388608,-8388608
10:57:14.790297,-8388608,-8388608,-8388608,-8388608,510211,-8388608,-8388608,-8388608
10:57:14.799473,-8388608,-8388608,-8388608,-8388608,508560,-8388608,-8388608,-8388608
10:57:14.800538,-8388608,-8388608,-8388608,-8388608,504386,-8388608,-8388608,-8388608
10:57:14.800538,-8388608,-8388608,-8388608,-8388608,501320,-8388608,-8388608,-8388608
10:57:14.800538,-8388608,-8388608,-8388608,-8388608,504489,-8388608,-8388608,-8388608
10:57:14.816256,-8388608,-8388608,-8388608,-8388608,510588,-8388608,-8388608,-8388608
10:57:14.817500,-8388608,-8388608,-8388608,-8388608,510298,-8388608,-8388608,-8388608
10:57:14.817500,-8388608,-8388608,-8388608,-8388608,505079,-8388608,-8388608,-8388608
10:57:14.817500,-8388608,-8388608,-8388608,-8388608,498909,-8388608,-8388608,-8388608
10:57:14.832734,-8388608,-8388608,-8388608,-8388608,500713,-8388608,-8388608,-8388608
10:57:14.833694,-8388608,-8388608,-8388608,-8388608,507526,-8388608,-8388608,-8388608
10:57:14.833694,-8388608,-8388608,-8388608,-8388608,506515,-8388608,-8388608,-8388608
10:57:14.833694,-8388608,-8388608,-8388608,-8388608,499288,-8388608,-8388608,-8388608
10:57:14.833694,-8388608,-8388608,-8388608,-8388608,494129,-8388608,-8388608,-8388608
10:57:14.850514,-8388608,-8388608,-8388608,-8388608,499181,-8388608,-8388608,-8388608
10:57:14.850514,-8388608,-8388608,-8388608,-8388608,504296,-8388608,-8388608,-8388608
10:57:14.850514,-8388608,-8388608,-8388608,-8388608,506066,-8388608,-8388608,-8388608
10:57:14.850514,-8388608,-8388608,-8388608,-8388608,499146,-8388608,-8388608,-8388608
10:57:14.867425,-8388608,-8388608,-8388608,-8388608,491227,-8388608,-8388608,-8388608
10:57:14.871112,-8388608,-8388608,-8388608,-8388608,494297,-8388608,-8388608,-8388608
10:57:14.872505,-8388608,-8388608,-8388608,-8388608,502645,-8388608,-8388608,-8388608
10:57:14.877129,-8388608,-8388608,-8388608,-8388608,500743,-8388608,-8388608,-8388608
10:57:14.882774,-8388608,-8388608,-8388608,-8388608,492151,-8388608,-8388608,-8388608
10:57:14.886779,-8388608,-8388608,-8388608,-8388608,489880,-8388608,-8388608,-8388608
10:57:14.892620,-8388608,-8388608,-8388608,-8388608,494089,-8388608,-8388608,-8388608
10:57:14.896647,-8388608,-8388608,-8388608,-8388608,498676,-8388608,-8388608,-8388608
10:57:14.899782,-8388608,-8388608,-8388608,-8388608,500972,-8388608,-8388608,-8388608
10:57:14.900932,-8388608,-8388608,-8388608,-8388608,496012,-8388608,-8388608,-8388608
10:57:14.900932,-8388608,-8388608,-8388608,-8388608,491692,-8388608,-8388608,-8388608
10:57:14.900932,-8388608,-8388608,-8388608,-8388608,493491,-8388608,-8388608,-8388608
10:57:14.915993,-8388608,-8388608,-8388608,-8388608,500947,-8388608,-8388608,-8388608
10:57:14.921004,-8388608,-8388608,-8388608,-8388608,501411,-8388608,-8388608,-8388608
10:57:14.924004,-8388608,-8388608,-8388608,-8388608,498922,-8388608,-8388608,-8388608
10:57:14.928514,-8388608,-8388608,-8388608,-8388608,495074,-8388608,-8388608,-8388608
10:57:14.931011,-8388608,-8388608,-8388608,-8388608,495337,-8388608,-8388608,-8388608
10:57:14.935055,-8388608,-8388608,-8388608,-8388608,505009,-8388608,-8388608,-8388608
10:57:14.939638,-8388608,-8388608,-8388608,-8388608,507126,-8388608,-8388608,-8388608
10:57:14.943809,-8388608,-8388608,-8388608,-8388608,500742,-8388608,-8388608,-8388608
10:57:14.947810,-8388608,-8388608,-8388608,-8388608,497811,-8388608,-8388608,-8388608
10:57:14.951139,-8388608,-8388608,-8388608,-8388608,500594,-8388608,-8388608,-8388608
10:57:14.954139,-8388608,-8388608,-8388608,-8388608,504728,-8388608,-8388608,-8388608
10:57:14.958458,-8388608,-8388608,-8388608,-8388608,505159,-8388608,-8388608,-8388608
10:57:14.962194,-8388608,-8388608,-8388608,-8388608,500597,-8388608,-8388608,-8388608
10:57:14.967352,-8388608,-8388608,-8388608,-8388608,496988,-8388608,-8388608,-8388608
10:57:14.968104,-8388608,-8388608,-8388608,-8388608,501957,-8388608,-8388608,-8388608
10:57:14.968104,-8388608,-8388608,-8388608,-8388608,508862,-8388608,-8388608,-8388608
10:57:14.977955,-8388608,-8388608,-8388608,-8388608,508497,-8388608,-8388608,-8388608
10:57:14.982618,-8388608,-8388608,-8388608,-8388608,502946,-8388608,-8388608,-8388608
10:57:14.985840,-8388608,-8388608,-8388608,-8388608,496021,-8388608,-8388608,-8388608
10:57:14.985840,-8388608,-8388608,-8388608,-8388608,497082,-8388608,-8388608,-8388608
10:57:14.985840,-8388608,-8388608,-8388608,-8388608,506124,-8388608,-8388608,-8388608
10:57:14.999206,-8388608,-8388608,-8388608,-8388608,510113,-8388608,-8388608,-8388608
10:57:15.003369,-8388608,-8388608,-8388608,-8388608,504009,-8388608,-8388608,-8388608
10:57:15.007205,-8388608,-8388608,-8388608,-8388608,498759,-8388608,-8388608,-8388608
10:57:15.008483,-8388608,-8388608,-8388608,-8388608,499619,-8388608,-8388608,-8388608
10:57:15.008483,-8388608,-8388608,-8388608,-8388608,506358,-8388608,-8388608,-8388608
10:57:15.019024,-8388608,-8388608,-8388608,-8388608,506006,-8388608,-8388608,-8388608
10:57:15.019024,-8388608,-8388608,-8388608,-8388608,497704,-8388608,-8388608,-8388608
10:57:15.019024,-8388608,-8388608,-8388608,-8388608,493879,-8388608,-8388608,-8388608
10:57:15.019024,-8388608,-8388608,-8388608,-8388608,501155,-8388608,-8388608,-8388608
10:57:15.033959,-8388608,-8388608,-8388608,-8388608,507773,-8388608,-8388608,-8388608
10:57:15.033959,-8388608,-8388608,-8388608,-8388608,505152,-8388608,-8388608,-8388608
10:57:15.033959,-8388608,-8388608,-8388608,-8388608,497479,-8388608,-8388608,-8388608
10:57:15.033959,-8388608,-8388608,-8388608,-8388608,495249,-8388608,-8388608,-8388608
10:57:15.051540,-8388608,-8388608,-8388608,-8388608,497803,-8388608,-8388608,-8388608
10:57:15.053266,-8388608,-8388608,-8388608,-8388608,503513,-8388608,-8388608,-8388608
10:57:15.053266,-8388608,-8388608,-8388608,-8388608,502678,-8388608,-8388608,-8388608
10:57:15.053266,-8388608,-8388608,-8388608,-8388608,497201,-8388608,-8388608,-8388608
10:57:15.067556,-8388608,-8388608,-8388608,-8388608,497094,-8388608,-8388608,-8388608
10:57:15.071484,-8388608,-8388608,-8388608,-8388608,500533,-8388608,-8388608,-8388608
10:57:15.071484,-8388608,-8388608,-8388608,-8388608,505232,-8388608,-8388608,-8388608
10:57:15.077507,-8388608,-8388608,-8388608,-8388608,504985,-8388608,-8388608,-8388608
10:57:15.083395,-8388608,-8388608,-8388608,-8388608,496501,-8388608,-8388608,-8388608
10:57:15.086630,-8388608,-8388608,-8388608,-8388608,490109,-8388608,-8388608,-8388608
10:57:15.090712,-8388608,-8388608,-8388608,-8388608,493962,-8388608,-8388608,-8388608
10:57:15.094776,-8388608,-8388608,-8388608,-8388608,502920,-8388608,-8388608,-8388608
10:57:15.098524,-8388608,-8388608,-8388608,-8388608,504481,-8388608,-8388608,-8388608
10:57:15.103634,-8388608,-8388608,-8388608,-8388608,498484,-8388608,-8388608,-8388608
10:57:15.105787,-8388608,-8388608,-8388608,-8388608,491886,-8388608,-8388608,-8388608
10:57:15.105787,-8388608,-8388608,-8388608,-8388608,493775,-8388608,-8388608,-8388608
10:57:15.105787,-8388608,-8388608,-8388608,-8388608,498499,-8388608,-8388608,-8388608
10:57:15.117770,-8388608,-8388608,-8388608,-8388608,499181,-8388608,-8388608,-8388608
10:57:15.117770,-8388608,-8388608,-8388608,-8388608,492929,-8388608,-8388608,-8388608
10:57:15.117770,-8388608,-8388608,-8388608,-8388608,490608,-8388608,-8388608,-8388608
10:57:15.117770,-8388608,-8388608,-8388608,-8388608,494926,-8388608,-8388608,-8388608
10:57:15.134609,-8388608,-8388608,-8388608,-8388608,499683,-8388608,-8388608,-8388608
10:57:15.134609,-8388608,-8388608,-8388608,-8388608,499727,-8388608,-8388608,-8388608
10:57:15.134609,-8388608,-8388608,-8388608,-8388608,492606,-8388608,-8388608,-8388608
10:57:15.134609,-8388608,-8388608,-8388608,-8388608,486663,-8388608,-8388608,-8388608
10:57:15.150708,-8388608,-8388608,-8388608,-8388608,492924,-8388608,-8388608,-8388608
10:57:15.150708,-8388608,-8388608,-8388608,-8388608,500324,-8388608,-8388608,-8388608
10:57:15.150708,-8388608,-8388608,-8388608,-8388608,497581,-8388608,-8388608,-8388608
10:57:15.150708,-8388608,-8388608,-8388608,-8388608,493344,-8388608,-8388608,-8388608
10:57:15.167798,-8388608,-8388608,-8388608,-8388608,490425,-8388608,-8388608,-8388608
10:57:15.167798,-8388608,-8388608,-8388608,-8388608,490299,-8388608,-8388608,-8388608
10:57:15.167798,-8388608,-8388608,-8388608,-8388608,496237,-8388608,-8388608,-8388608
10:57:15.177902,-8388608,-8388608,-8388608,-8388608,496337,-8388608,-8388608,-8388608
10:57:15.182611,-8388608,-8388608,-8388608,-8388608,487840,-8388608,-8388608,-8388608
10:57:15.184236,-8388608,-8388608,-8388608,-8388608,485169,-8388608,-8388608,-8388608
10:57:15.184236,-8388608,-8388608,-8388608,-8388608,488337,-8388608,-8388608,-8388608
10:57:15.184236,-8388608,-8388608,-8388608,-8388608,494473,-8388608,-8388608,-8388608
10:57:15.199185,-8388608,-8388608,-8388608,-8388608,495198,-8388608,-8388608,-8388608
10:57:15.200958,-8388608,-8388608,-8388608,-8388608,487461,-8388608,-8388608,-8388608
10:57:15.200958,-8388608,-8388608,-8388608,-8388608,488221,-8388608,-8388608,-8388608
10:57:15.200958,-8388608,-8388608,-8388608,-8388608,488994,-8388608,-8388608,-8388608
10:57:15.215930,-8388608,-8388608,-8388608,-8388608,494184,-8388608,-8388608,-8388608
10:57:15.219939,-8388608,-8388608,-8388608,-8388608,495210,-8388608,-8388608,-8388608
10:57:15.222938,-8388608,-8388608,-8388608,-8388608,489124,-8388608,-8388608,-8388608
10:57:15.224724,-8388608,-8388608,-8388608,-8388608,483864,-8388608,-8388608,-8388608
10:57:15.224724,-8388608,-8388608,-8388608,-8388608,485469,-8388608,-8388608,-8388608
10:57:15.234098,-8388608,-8388608,-8388608,-8388608,492489,-8388608,-8388608,-8388608
10:57:15.234098,-8388608,-8388608,-8388608,-8388608,492715,-8388608,-8388608,-8388608
10:57:15.234098,-8388608,-8388608,-8388608,-8388608,484820,-8388608,-8388608,-8388608
10:57:15.234098,-8388608,-8388608,-8388608,-8388608,479381,-8388608,-8388608,-8388608
10:57:15.250693,-8388608,-8388608,-8388608,-8388608,483887,-8388608,-8388608,-8388608
10:57:15.251310,-8388608,-8388608,-8388608,-8388608,488222,-8388608,-8388608,-8388608
10:57:15.251310,-8388608,-8388608,-8388608,-8388608,489824,-8388608,-8388608,-8388608
10:57:15.251310,-8388608,-8388608,-8388608,-8388608,483217,-8388608,-8388608,-8388608
10:57:15.266790,-8388608,-8388608,-8388608,-8388608,476561,-8388608,-8388608,-8388608
10:57:15.267722,-8388608,-8388608,-8388608,-8388608,482311,-8388608,-8388608,-8388608
10:57:15.267722,-8388608,-8388608,-8388608,-8388608,490858,-8388608,-8388608,-8388608
10:57:15.278234,-8388608,-8388608,-8388608,-8388608,489101,-8388608,-8388608,-8388608
10:57:15.282448,-8388608,-8388608,-8388608,-8388608,481509,-8388608,-8388608,-8388608
10:57:15.286934,-8388608,-8388608,-8388608,-8388608,481231,-8388608,-8388608,-8388608
10:57:15.289796,-8388608,-8388608,-8388608,-8388608,480214,-8388608,-8388608,-8388608
10:57:15.289796,-8388608,-8388608,-8388608,-8388608,484516,-8388608,-8388608,-8388608
10:57:15.299169,-8388608,-8388608,-8388608,-8388608,488800,-8388608,-8388608,-8388608
10:57:15.302207,-8388608,-8388608,-8388608,-8388608,480491,-8388608,-8388608,-8388608
10:57:15.306460,-8388608,-8388608,-8388608,-8388608,474832,-8388608,-8388608,-8388608
10:57:15.311594,-8388608,-8388608,-8388608,-8388608,478288,-8388608,-8388608,-8388608
10:57:15.315410,-8388608,-8388608,-8388608,-8388608,484291,-8388608,-8388608,-8388608
10:57:15.318274,-8388608,-8388608,-8388608,-8388608,485134,-8388608,-8388608,-8388608
10:57:15.321889,-8388608,-8388608,-8388608,-8388608,479303,-8388608,-8388608,-8388608
10:57:15.321889,-8388608,-8388608,-8388608,-8388608,470279,-8388608,-8388608,-8388608
10:57:15.321889,-8388608,-8388608,-8388608,-8388608,474507,-8388608,-8388608,-8388608
10:57:15.333769,-8388608,-8388608,-8388608,-8388608,481353,-8388608,-8388608,-8388608
10:57:15.333769,-8388608,-8388608,-8388608,-8388608,482174,-8388608,-8388608,-8388608
10:57:15.333769,-8388608,-8388608,-8388608,-8388608,477342,-8388608,-8388608,-8388608
10:57:15.333769,-8388608,-8388608,-8388608,-8388608,472158,-8388608,-8388608,-8388608
10:57:15.351042,-8388608,-8388608,-8388608,-8388608,473521,-8388608,-8388608,-8388608
10:57:15.351042,-8388608,-8388608,-8388608,-8388608,478443,-8388608,-8388608,-8388608
10:57:15.351042,-8388608,-8388608,-8388608,-8388608,478102,-8388608,-8388608,-8388608
10:57:15.351042,-8388608,-8388608,-8388608,-8388608,471923,-8388608,-8388608,-8388608
10:57:15.365757,-8388608,-8388608,-8388608,-8388608,466518,-8388608,-8388608,-8388608
10:57:15.367548,-8388608,-8388608,-8388608,-8388608,471182,-8388608,-8388608,-8388608
10:57:15.367548,-8388608,-8388608,-8388608,-8388608,478178,-8388608,-8388608,-8388608
10:57:15.378611,-8388608,-8388608,-8388608,-8388608,478252,-8388608,-8388608,-8388608
10:57:15.382484,-8388608,-8388608,-8388608,-8388608,471437,-8388608,-8388608,-8388608
10:57:15.384008,-8388608,-8388608,-8388608,-8388608,466834,-8388608,-8388608,-8388608
10:57:15.384008,-8388608,-8388608,-8388608,-8388608,468635,-8388608,-8388608,-8388608
10:57:15.384008,-8388608,-8388608,-8388608,-8388608,475603,-8388608,-8388608,-8388608
10:57:15.399066,-8388608,-8388608,-8388608,-8388608,476288,-8388608,-8388608,-8388608
10:57:15.400782,-8388608,-8388608,-8388608,-8388608,468193,-8388608,-8388608,-8388608
10:57:15.400782,-8388608,-8388608,-8388608,-8388608,465338,-8388608,-8388608,-8388608
10:57:15.400782,-8388608,-8388608,-8388608,-8388608,469219,-8388608,-8388608,-8388608
10:57:15.400782,-8388608,-8388608,-8388608,-8388608,473430,-8388608,-8388608,-8388608
10:57:15.417584,-8388608,-8388608,-8388608,-8388608,470088,-8388608,-8388608,-8388608
10:57:15.417584,-8388608,-8388608,-8388608,-8388608,463124,-8388608,-8388608,-8388608
10:57:15.417584,-8388608,-8388608,-8388608,-8388608,460485,-8388608,-8388608,-8388608
10:57:15.417584,-8388608,-8388608,-8388608,-8388608,464284,-8388608,-8388608,-8388608
10:57:15.434456,-8388608,-8388608,-8388608,-8388608,470432,-8388608,-8388608,-8388608
10:57:15.437456,-8388608,-8388608,-8388608,-8388608,471403,-8388608,-8388608,-8388608
10:57:15.439772,-8388608,-8388608,-8388608,-8388608,464371,-8388608,-8388608,-8388608
10:57:15.439772,-8388608,-8388608,-8388608,-8388608,457599,-8388608,-8388608,-8388608
10:57:15.450050,-8388608,-8388608,-8388608,-8388608,460988,-8388608,-8388608,-8388608
10:57:15.450457,-8388608,-8388608,-8388608,-8388608,469579,-8388608,-8388608,-8388608
10:57:15.450457,-8388608,-8388608,-8388608,-8388608,470358,-8388608,-8388608,-8388608
10:57:15.450457,-8388608,-8388608,-8388608,-8388608,462926,-8388608,-8388608,-8388608
10:57:15.465869,-8388608,-8388608,-8388608,-8388608,452821,-8388608,-8388608,-8388608
10:57:15.467556,-8388608,-8388608,-8388608,-8388608,461429,-8388608,-8388608,-8388608
10:57:15.467556,-8388608,-8388608,-8388608,-8388608,468291,-8388608,-8388608,-8388608
10:57:15.478645,-8388608,-8388608,-8388608,-8388608,466048,-8388608,-8388608,-8388608
10:57:15.483870,-8388608,-8388608,-8388608,-8388608,458578,-8388608,-8388608,-8388608
10:57:15.483870,-8388608,-8388608,-8388608,-8388608,455231,-8388608,-8388608,-8388608
10:57:15.483870,-8388608,-8388608,-8388608,-8388608,458884,-8388608,-8388608,-8388608
10:57:15.483870,-8388608,-8388608,-8388608,-8388608,463123,-8388608,-8388608,-8388608
10:57:15.498995,-8388608,-8388608,-8388608,-8388608,462500,-8388608,-8388608,-8388608
10:57:15.500402,-8388608,-8388608,-8388608,-8388608,455761,-8388608,-8388608,-8388608
10:57:15.505785,-8388608,-8388608,-8388608,-8388608,450091,-8388608,-8388608,-8388608
10:57:15.505785,-8388608,-8388608,-8388608,-8388608,454496,-8388608,-8388608,-8388608
10:57:15.505785,-8388608,-8388608,-8388608,-8388608,460194,-8388608,-8388608,-8388608
10:57:15.517735,-8388608,-8388608,-8388608,-8388608,459261,-8388608,-8388608,-8388608
10:57:15.522500,-8388608,-8388608,-8388608,-8388608,453158,-8388608,-8388608,-8388608
10:57:15.526498,-8388608,-8388608,-8388608,-8388608,448281,-8388608,-8388608,-8388608
10:57:15.530519,-8388608,-8388608,-8388608,-8388608,453946,-8388608,-8388608,-8388608
10:57:15.533914,-8388608,-8388608,-8388608,-8388608,461100,-8388608,-8388608,-8388608
10:57:15.538197,-8388608,-8388608,-8388608,-8388608,460113,-8388608,-8388608,-8388608
10:57:15.543512,-8388608,-8388608,-8388608,-8388608,451371,-8388608,-8388608,-8388608
10:57:15.543512,-8388608,-8388608,-8388608,-8388608,446864,-8388608,-8388608,-8388608
10:57:15.550194,-8388608,-8388608,-8388608,-8388608,449959,-8388608,-8388608,-8388608
10:57:15.550194,-8388608,-8388608,-8388608,-8388608,456674,-8388608,-8388608,-8388608
10:57:15.550194,-8388608,-8388608,-8388608,-8388608,454083,-8388608,-8388608,-8388608
10:57:15.550194,-8388608,-8388608,-8388608,-8388608,445338,-8388608,-8388608,-8388608
10:57:15.565730,-8388608,-8388608,-8388608,-8388608,439411,-8388608,-8388608,-8388608
10:57:15.567304,-8388608,-8388608,-8388608,-8388608,442313,-8388608,-8388608,-8388608
10:57:15.567304,-8388608,-8388608,-8388608,-8388608,449251,-8388608,-8388608,-8388608
10:57:15.567304,-8388608,-8388608,-8388608,-8388608,452507,-8388608,-8388608,-8388608
10:57:15.582103,-8388608,-8388608,-8388608,-8388608,446551,-8388608,-8388608,-8388608
10:57:15.583904,-8388608,-8388608,-8388608,-8388608,443314,-8388608,-8388608,-8388608
10:57:15.583904,-8388608,-8388608,-8388608,-8388608,444309,-8388608,-8388608,-8388608
10:57:15.583904,-8388608,-8388608,-8388608,-8388608,450254,-8388608,-8388608,-8388608
10:57:15.598867,-8388608,-8388608,-8388608,-8388608,448021,-8388608,-8388608,-8388608
10:57:15.600455,-8388608,-8388608,-8388608,-8388608,439678,-8388608,-8388608,-8388608
10:57:15.600455,-8388608,-8388608,-8388608,-8388608,437353,-8388608,-8388608,-8388608
10:57:15.600455,-8388608,-8388608,-8388608,-8388608,437933,-8388608,-8388608,-8388608
10:57:15.600455,-8388608,-8388608,-8388608,-8388608,444532,-8388608,-8388608,-8388608
10:57:15.617277,-8388608,-8388608,-8388608,-8388608,448531,-8388608,-8388608,-8388608
10:57:15.617277,-8388608,-8388608,-8388608,-8388608,443945,-8388608,-8388608,-8388608
10:57:15.617277,-8388608,-8388608,-8388608,-8388608,437399,-8388608,-8388608,-8388608
10:57:15.617277,-8388608,-8388608,-8388608,-8388608,438007,-8388608,-8388608,-8388608
10:57:15.634109,-8388608,-8388608,-8388608,-8388608,446529,-8388608,-8388608,-8388608
10:57:15.634109,-8388608,-8388608,-8388608,-8388608,447453,-8388608,-8388608,-8388608
10:57:15.634109,-8388608,-8388608,-8388608,-8388608,440234,-8388608,-8388608,-8388608
10:57:15.634109,-8388608,-8388608,-8388608,-8388608,433334,-8388608,-8388608,-8388608
10:57:15.650788,-8388608,-8388608,-8388608,-8388608,438336,-8388608,-8388608,-8388608
10:57:15.654099,-8388608,-8388608,-8388608,-8388608,444451,-8388608,-8388608,-8388608
10:57:15.655730,-8388608,-8388608,-8388608,-8388608,444294,-8388608,-8388608,-8388608
10:57:15.655730,-8388608,-8388608,-8388608,-8388608,439282,-8388608,-8388608,-8388608
10:57:15.665540,-8388608,-8388608,-8388608,-8388608,433854,-8388608,-8388608,-8388608
10:57:15.666903,-8388608,-8388608,-8388608,-8388608,434279,-8388608,-8388608,-8388608
10:57:15.666903,-8388608,-8388608,-8388608,-8388608,443949,-8388608,-8388608,-8388608
10:57:15.666903,-8388608,-8388608,-8388608,-8388608,446483,-8388608,-8388608,-8388608
10:57:15.678955,-8388608,-8388608,-8388608,-8388608,439376,-8388608,-8388608,-8388608
10:57:15.683803,-8388608,-8388608,-8388608,-8388608,434781,-8388608,-8388608,-8388608
10:57:15.683803,-8388608,-8388608,-8388608,-8388608,431319,-8388608,-8388608,-8388608
10:57:15.683803,-8388608,-8388608,-8388608,-8388608,428603,-8388608,-8388608,-8388608
10:57:15.698788,-8388608,-8388608,-8388608,-8388608,420493,-8388608,-8388608,-8388608
10:57:15.700256,-8388608,-8388608,-8388608,-8388608,409282,-8388608,-8388608,-8388608
10:57:15.706014,-8388608,-8388608,-8388608,-8388608,400623,-8388608,-8388608,-8388608
10:57:15.707044,-8388608,-8388608,-8388608,-8388608,403936,-8388608,-8388608,-8388608
10:57:15.707044,-8388608,-8388608,-8388608,-8388608,416286,-8388608,-8388608,-8388608
10:57:15.717500,-8388608,-8388608,-8388608,-8388608,424506,-8388608,-8388608,-8388608
10:57:15.720981,-8388608,-8388608,-8388608,-8388608,423568,-8388608,-8388608,-8388608
10:57:15.726792,-8388608,-8388608,-8388608,-8388608,424483,-8388608,-8388608,-8388608
10:57:15.730821,-8388608,-8388608,-8388608,-8388608,428728,-8388608,-8388608,-8388608
10:57:15.733597,-8388608,-8388608,-8388608,-8388608,434704,-8388608,-8388608,-8388608
10:57:15.733597,-8388608,-8388608,-8388608,-8388608,434649,-8388608,-8388608,-8388608
10:57:15.733597,-8388608,-8388608,-8388608,-8388608,425514,-8388608,-8388608,-8388608
10:57:15.733597,-8388608,-8388608,-8388608,-8388608,421369,-8388608,-8388608,-8388608
10:57:15.748839,-8388608,-8388608,-8388608,-8388608,424466,-8388608,-8388608,-8388608
10:57:15.754844,-8388608,-8388608,-8388608,-8388608,430773,-8388608,-8388608,-8388608
10:57:15.756435,-8388608,-8388608,-8388608,-8388608,431638,-8388608,-8388608,-8388608
10:57:15.756435,-8388608,-8388608,-8388608,-8388608,423741,-8388608,-8388608,-8388608
10:57:15.765321,-8388608,-8388608,-8388608,-8388608,420546,-8388608,-8388608,-8388608
10:57:15.766659,-8388608,-8388608,-8388608,-8388608,425552,-8388608,-8388608,-8388608
10:57:15.766659,-8388608,-8388608,-8388608,-8388608,430909,-8388608,-8388608,-8388608
10:57:15.766659,-8388608,-8388608,-8388608,-8388608,429471,-8388608,-8388608,-8388608
10:57:15.782150,-8388608,-8388608,-8388608,-8388608,424436,-8388608,-8388608,-8388608
10:57:15.783646,-8388608,-8388608,-8388608,-8388608,419011,-8388608,-8388608,-8388608
10:57:15.783646,-8388608,-8388608,-8388608,-8388608,420511,-8388608,-8388608,-8388608
10:57:15.783646,-8388608,-8388608,-8388608,-8388608,425305,-8388608,-8388608,-8388608
10:57:15.783646,-8388608,-8388608,-8388608,-8388608,427850,-8388608,-8388608,-8388608
10:57:15.800209,-8388608,-8388608,-8388608,-8388608,421969,-8388608,-8388608,-8388608
10:57:15.800209,-8388608,-8388608,-8388608,-8388608,417623,-8388608,-8388608,-8388608
10:57:15.800209,-8388608,-8388608,-8388608,-8388608,419779,-8388608,-8388608,-8388608
10:57:15.800209,-8388608,-8388608,-8388608,-8388608,424816,-8388608,-8388608,-8388608
10:57:15.817378,-8388608,-8388608,-8388608,-8388608,426840,-8388608,-8388608,-8388608
10:57:15.817378,-8388608,-8388608,-8388608,-8388608,418824,-8388608,-8388608,-8388608
10:57:15.817378,-8388608,-8388608,-8388608,-8388608,412104,-8388608,-8388608,-8388608
10:57:15.817378,-8388608,-8388608,-8388608,-8388608,413984,-8388608,-8388608,-8388608
10:57:15.833687,-8388608,-8388608,-8388608,-8388608,421964,-8388608,-8388608,-8388608
10:57:15.833687,-8388608,-8388608,-8388608,-8388608,422996,-8388608,-8388608,-8388608
10:57:15.833687,-8388608,-8388608,-8388608,-8388608,416436,-8388608,-8388608,-8388608
10:57:15.833687,-8388608,-8388608,-8388608,-8388608,413024,-8388608,-8388608,-8388608
10:57:15.849679,-8388608,-8388608,-8388608,-8388608,412293,-8388608,-8388608,-8388608
10:57:15.850406,-8388608,-8388608,-8388608,-8388608,418403,-8388608,-8388608,-8388608
10:57:15.850406,-8388608,-8388608,-8388608,-8388608,420445,-8388608,-8388608,-8388608
10:57:15.850406,-8388608,-8388608,-8388608,-8388608,413226,-8388608,-8388608,-8388608
10:57:15.865341,-8388608,-8388608,-8388608,-8388608,407018,-8388608,-8388608,-8388608
10:57:15.870421,-8388608,-8388608,-8388608,-8388608,412566,-8388608,-8388608,-8388608
10:57:15.872516,-8388608,-8388608,-8388608,-8388608,416951,-8388608,-8388608,-8388608
10:57:15.872516,-8388608,-8388608,-8388608,-8388608,415270,-8388608,-8388608,-8388608
10:57:15.879641,-8388608,-8388608,-8388608,-8388608,411563,-8388608,-8388608,-8388608
10:57:15.883230,-8388608,-8388608,-8388608,-8388608,405213,-8388608,-8388608,-8388608
10:57:15.883230,-8388608,-8388608,-8388608,-8388608,408079,-8388608,-8388608,-8388608
10:57:15.883230,-8388608,-8388608,-8388608,-8388608,413851,-8388608,-8388608,-8388608
10:57:15.883230,-8388608,-8388608,-8388608,-8388608,414909,-8388608,-8388608,-8388608
10:57:15.899960,-8388608,-8388608,-8388608,-8388608,407851,-8388608,-8388608,-8388608
10:57:15.899960,-8388608,-8388608,-8388608,-8388608,402226,-8388608,-8388608,-8388608
10:57:15.899960,-8388608,-8388608,-8388608,-8388608,402540,-8388608,-8388608,-8388608
10:57:15.899960,-8388608,-8388608,-8388608,-8388608,410916,-8388608,-8388608,-8388608
10:57:15.916733,-8388608,-8388608,-8388608,-8388608,414968,-8388608,-8388608,-8388608
10:57:15.922533,-8388608,-8388608,-8388608,-8388608,404824,-8388608,-8388608,-8388608
10:57:15.922533,-8388608,-8388608,-8388608,-8388608,397739,-8388608,-8388608,-8388608
10:57:15.922533,-8388608,-8388608,-8388608,-8388608,400149,-8388608,-8388608,-8388608
10:57:15.934046,-8388608,-8388608,-8388608,-8388608,402626,-8388608,-8388608,-8388608
10:57:15.937235,-8388608,-8388608,-8388608,-8388608,404249,-8388608,-8388608,-8388608
10:57:15.942412,-8388608,-8388608,-8388608,-8388608,396771,-8388608,-8388608,-8388608
10:57:15.946423,-8388608,-8388608,-8388608,-8388608,393459,-8388608,-8388608,-8388608
10:57:15.949336,-8388608,-8388608,-8388608,-8388608,398176,-8388608,-8388608,-8388608
10:57:15.950133,-8388608,-8388608,-8388608,-8388608,400489,-8388608,-8388608,-8388608
10:57:15.950133,-8388608,-8388608,-8388608,-8388608,399854,-8388608,-8388608,-8388608
10:57:15.950133,-8388608,-8388608,-8388608,-8388608,392388,-8388608,-8388608,-8388608
10:57:15.965395,-8388608,-8388608,-8388608,-8388608,391191,-8388608,-8388608,-8388608
10:57:15.969426,-8388608,-8388608,-8388608,-8388608,395103,-8388608,-8388608,-8388608
10:57:15.972785,-8388608,-8388608,-8388608,-8388608,398709,-8388608,-8388608,-8388608
10:57:15.972785,-8388608,-8388608,-8388608,-8388608,399467,-8388608,-8388608,-8388608
10:57:15.981846,-8388608,-8388608,-8388608,-8388608,391367,-8388608,-8388608,-8388608
10:57:15.983721,-8388608,-8388608,-8388608,-8388608,383845,-8388608,-8388608,-8388608
10:57:15.983721,-8388608,-8388608,-8388608,-8388608,387486,-8388608,-8388608,-8388608
10:57:15.983721,-8388608,-8388608,-8388608,-8388608,396200,-8388608,-8388608,-8388608
10:57:15.983721,-8388608,-8388608,-8388608,-8388608,398204,-8388608,-8388608,-8388608
10:57:16.000402,-8388608,-8388608,-8388608,-8388608,393445,-8388608,-8388608,-8388608
10:57:16.000402,-8388608,-8388608,-8388608,-8388608,388313,-8388608,-8388608,-8388608
10:57:16.000402,-8388608,-8388608,-8388608,-8388608,390162,-8388608,-8388608,-8388608
10:57:16.000402,-8388608,-8388608,-8388608,-8388608,395456,-8388608,-8388608,-8388608
10:57:16.016949,-8388608,-8388608,-8388608,-8388608,399181,-8388608,-8388608,-8388608
10:57:16.016949,-8388608,-8388608,-8388608,-8388608,396546,-8388608,-8388608,-8388608
10:57:16.016949,-8388608,-8388608,-8388608,-8388608,390637,-8388608,-8388608,-8388608
10:57:16.016949,-8388608,-8388608,-8388608,-8388608,391973,-8388608,-8388608,-8388608
10:57:16.033649,-8388608,-8388608,-8388608,-8388608,398322,-8388608,-8388608,-8388608
10:57:16.033649,-8388608,-8388608,-8388608,-8388608,398701,-8388608,-8388608,-8388608
10:57:16.033649,-8388608,-8388608,-8388608,-8388608,392402,-8388608,-8388608,-8388608
10:57:16.033649,-8388608,-8388608,-8388608,-8388608,389620,-8388608,-8388608,-8388608
10:57:16.050010,-8388608,-8388608,-8388608,-8388608,390518,-8388608,-8388608,-8388608
10:57:16.050526,-8388608,-8388608,-8388608,-8388608,396531,-8388608,-8388608,-8388608
10:57:16.050526,-8388608,-8388608,-8388608,-8388608,401703,-8388608,-8388608,-8388608
10:57:16.050526,-8388608,-8388608,-8388608,-8388608,395206,-8388608,-8388608,-8388608
10:57:16.066706,-8388608,-8388608,-8388608,-8388608,392152,-8388608,-8388608,-8388608
10:57:16.067393,-8388608,-8388608,-8388608,-8388608,391020,-8388608,-8388608,-8388608
10:57:16.067393,-8388608,-8388608,-8388608,-8388608,395004,-8388608,-8388608,-8388608
10:57:16.067393,-8388608,-8388608,-8388608,-8388608,397063,-8388608,-8388608,-8388608
10:57:16.080004,-8388608,-8388608,-8388608,-8388608,392161,-8388608,-8388608,-8388608
10:57:16.085003,-8388608,-8388608,-8388608,-8388608,388611,-8388608,-8388608,-8388608
10:57:16.088688,-8388608,-8388608,-8388608,-8388608,393131,-8388608,-8388608,-8388608
10:57:16.088688,-8388608,-8388608,-8388608,-8388608,396592,-8388608,-8388608,-8388608
10:57:16.088688,-8388608,-8388608,-8388608,-8388608,396285,-8388608,-8388608,-8388608
10:57:16.099902,-8388608,-8388608,-8388608,-8388608,390119,-8388608,-8388608,-8388608
10:57:16.099902,-8388608,-8388608,-8388608,-8388608,384981,-8388608,-8388608,-8388608
10:57:16.099902,-8388608,-8388608,-8388608,-8388608,390133,-8388608,-8388608,-8388608
10:57:16.099902,-8388608,-8388608,-8388608,-8388608,395958,-8388608,-8388608,-8388608
10:57:16.116835,-8388608,-8388608,-8388608,-8388608,394037,-8388608,-8388608,-8388608
10:57:16.116835,-8388608,-8388608,-8388608,-8388608,385209,-8388608,-8388608,-8388608
10:57:16.116835,-8388608,-8388608,-8388608,-8388608,381962,-8388608,-8388608,-8388608
10:57:16.116835,-8388608,-8388608,-8388608,-8388608,386688,-8388608,-8388608,-8388608
10:57:16.132828,-8388608,-8388608,-8388608,-8388608,393111,-8388608,-8388608,-8388608
10:57:16.136687,-8388608,-8388608,-8388608,-8388608,395428,-8388608,-8388608,-8388608
10:57:16.139742,-8388608,-8388608,-8388608,-8388608,389971,-8388608,-8388608,-8388608
10:57:16.139742,-8388608,-8388608,-8388608,-8388608,381469,-8388608,-8388608,-8388608
10:57:16.149383,-8388608,-8388608,-8388608,-8388608,382154,-8388608,-8388608,-8388608
10:57:16.153218,-8388608,-8388608,-8388608,-8388608,387491,-8388608,-8388608,-8388608
10:57:16.157730,-8388608,-8388608,-8388608,-8388608,388559,-8388608,-8388608,-8388608
10:57:16.161707,-8388608,-8388608,-8388608,-8388608,385029,-8388608,-8388608,-8388608
10:57:16.165234,-8388608,-8388608,-8388608,-8388608,381207,-8388608,-8388608,-8388608
10:57:16.166940,-8388608,-8388608,-8388608,-8388608,384689,-8388608,-8388608,-8388608
10:57:16.166940,-8388608,-8388608,-8388608,-8388608,390608,-8388608,-8388608,-8388608
10:57:16.166940,-8388608,-8388608,-8388608,-8388608,390849,-8388608,-8388608,-8388608
10:57:16.181969,-8388608,-8388608,-8388608,-8388608,382352,-8388608,-8388608,-8388608
10:57:16.184709,-8388608,-8388608,-8388608,-8388608,378065,-8388608,-8388608,-8388608
10:57:16.189519,-8388608,-8388608,-8388608,-8388608,380907,-8388608,-8388608,-8388608
10:57:16.189519,-8388608,-8388608,-8388608,-8388608,385688,-8388608,-8388608,-8388608
10:57:16.198309,-8388608,-8388608,-8388608,-8388608,386153,-8388608,-8388608,-8388608
10:57:16.199636,-8388608,-8388608,-8388608,-8388608,379370,-8388608,-8388608,-8388608
10:57:16.199636,-8388608,-8388608,-8388608,-8388608,376076,-8388608,-8388608,-8388608
10:57:16.199636,-8388608,-8388608,-8388608,-8388608,376544,-8388608,-8388608,-8388608
10:57:16.199636,-8388608,-8388608,-8388608,-8388608,383594,-8388608,-8388608,-8388608
10:57:16.216855,-8388608,-8388608,-8388608,-8388608,385893,-8388608,-8388608,-8388608
10:57:16.216855,-8388608,-8388608,-8388608,-8388608,380020,-8388608,-8388608,-8388608
10:57:16.216855,-8388608,-8388608,-8388608,-8388608,374929,-8388608,-8388608,-8388608
10:57:16.216855,-8388608,-8388608,-8388608,-8388608,380054,-8388608,-8388608,-8388608
10:57:16.233299,-8388608,-8388608,-8388608,-8388608,385056,-8388608,-8388608,-8388608
10:57:16.233999,-8388608,-8388608,-8388608,-8388608,382727,-8388608,-8388608,-8388608
10:57:16.233999,-8388608,-8388608,-8388608,-8388608,374661,-8388608,-8388608,-8388608
10:57:16.233999,-8388608,-8388608,-8388608,-8388608,372433,-8388608,-8388608,-8388608
10:57:16.249008,-8388608,-8388608,-8388608,-8388608,375516,-8388608,-8388608,-8388608
10:57:16.250509,-8388608,-8388608,-8388608,-8388608,381331,-8388608,-8388608,-8388608
10:57:16.250509,-8388608,-8388608,-8388608,-8388608,385152,-8388608,-8388608,-8388608
10:57:16.250509,-8388608,-8388608,-8388608,-8388608,377630,-8388608,-8388608,-8388608
10:57:16.250509,-8388608,-8388608,-8388608,-8388608,370216,-8388608,-8388608,-8388608
10:57:16.267058,-8388608,-8388608,-8388608,-8388608,374137,-8388608,-8388608,-8388608
10:57:16.267058,-8388608,-8388608,-8388608,-8388608,381709,-8388608,-8388608,-8388608
10:57:16.267058,-8388608,-8388608,-8388608,-8388608,380891,-8388608,-8388608,-8388608
10:57:16.280070,-8388608,-8388608,-8388608,-8388608,375644,-8388608,-8388608,-8388608
10:57:16.284034,-8388608,-8388608,-8388608,-8388608,371814,-8388608,-8388608,-8388608
10:57:16.284034,-8388608,-8388608,-8388608,-8388608,374521,-8388608,-8388608,-8388608
10:57:16.284034,-8388608,-8388608,-8388608,-8388608,380366,-8388608,-8388608,-8388608
10:57:16.284034,-8388608,-8388608,-8388608,-8388608,379074,-8388608,-8388608,-8388608
10:57:16.299043,-8388608,-8388608,-8388608,-8388608,372041,-8388608,-8388608,-8388608
10:57:16.304893,-8388608,-8388608,-8388608,-8388608,366985,-8388608,-8388608,-8388608
10:57:16.306425,-8388608,-8388608,-8388608,-8388608,371445,-8388608,-8388608,-8388608
10:57:16.306425,-8388608,-8388608,-8388608,-8388608,378283,-8388608,-8388608,-8388608
10:57:16.316396,-8388608,-8388608,-8388608,-8388608,379864,-8388608,-8388608,-8388608
10:57:16.316396,-8388608,-8388608,-8388608,-8388608,372083,-8388608,-8388608,-8388608
10:57:16.316396,-8388608,-8388608,-8388608,-8388608,366841,-8388608,-8388608,-8388608
10:57:16.316396,-8388608,-8388608,-8388608,-8388608,371163,-8388608,-8388608,-8388608
10:57:16.333502,-8388608,-8388608,-8388608,-8388608,376386,-8388608,-8388608,-8388608
10:57:16.333502,-8388608,-8388608,-8388608,-8388608,375485,-8388608,-8388608,-8388608
10:57:16.333502,-8388608,-8388608,-8388608,-8388608,370692,-8388608,-8388608,-8388608
10:57:16.333502,-8388608,-8388608,-8388608,-8388608,369864,-8388608,-8388608,-8388608
10:57:16.348185,-8388608,-8388608,-8388608,-8388608,373211,-8388608,-8388608,-8388608
10:57:16.349946,-8388608,-8388608,-8388608,-8388608,376865,-8388608,-8388608,-8388608
10:57:16.356329,-8388608,-8388608,-8388608,-8388608,377239,-8388608,-8388608,-8388608
10:57:16.356329,-8388608,-8388608,-8388608,-8388608,371324,-8388608,-8388608,-8388608
10:57:16.364737,-8388608,-8388608,-8388608,-8388608,365660,-8388608,-8388608,-8388608
10:57:16.369391,-8388608,-8388608,-8388608,-8388608,366688,-8388608,-8388608,-8388608
10:57:16.372594,-8388608,-8388608,-8388608,-8388608,372677,-8388608,-8388608,-8388608
10:57:16.376605,-8388608,-8388608,-8388608,-8388608,375911,-8388608,-8388608,-8388608
10:57:16.380430,-8388608,-8388608,-8388608,-8388608,370380,-8388608,-8388608,-8388608
10:57:16.383104,-8388608,-8388608,-8388608,-8388608,363370,-8388608,-8388608,-8388608
10:57:16.383104,-8388608,-8388608,-8388608,-8388608,365221,-8388608,-8388608,-8388608
10:57:16.383104,-8388608,-8388608,-8388608,-8388608,371856,-8388608,-8388608,-8388608
10:57:16.398117,-8388608,-8388608,-8388608,-8388608,372988,-8388608,-8388608,-8388608
10:57:16.400371,-8388608,-8388608,-8388608,-8388608,369634,-8388608,-8388608,-8388608
10:57:16.404238,-8388608,-8388608,-8388608,-8388608,364825,-8388608,-8388608,-8388608
10:57:16.405351,-8388608,-8388608,-8388608,-8388608,364763,-8388608,-8388608,-8388608
10:57:16.405351,-8388608,-8388608,-8388608,-8388608,371524,-8388608,-8388608,-8388608
10:57:16.415943,-8388608,-8388608,-8388608,-8388608,368993,-8388608,-8388608,-8388608
10:57:16.415943,-8388608,-8388608,-8388608,-8388608,362761,-8388608,-8388608,-8388608
10:57:16.415943,-8388608,-8388608,-8388608,-8388608,363238,-8388608,-8388608,-8388608
10:57:16.415943,-8388608,-8388608,-8388608,-8388608,365709,-8388608,-8388608,-8388608
10:57:16.431568,-8388608,-8388608,-8388608,-8388608,369517,-8388608,-8388608,-8388608
10:57:16.433513,-8388608,-8388608,-8388608,-8388608,369146,-8388608,-8388608,-8388608
10:57:16.433513,-8388608,-8388608,-8388608,-8388608,364598,-8388608,-8388608,-8388608
10:57:16.433513,-8388608,-8388608,-8388608,-8388608,362917,-8388608,-8388608,-8388608
10:57:16.449383,-8388608,-8388608,-8388608,-8388608,362845,-8388608,-8388608,-8388608
10:57:16.450117,-8388608,-8388608,-8388608,-8388608,367324,-8388608,-8388608,-8388608
10:57:16.450117,-8388608,-8388608,-8388608,-8388608,367150,-8388608,-8388608,-8388608
10:57:16.450117,-8388608,-8388608,-8388608,-8388608,361396,-8388608,-8388608,-8388608
10:57:16.464744,-8388608,-8388608,-8388608,-8388608,359943,-8388608,-8388608,-8388608
10:57:16.466612,-8388608,-8388608,-8388608,-8388608,363044,-8388608,-8388608,-8388608
10:57:16.466612,-8388608,-8388608,-8388608,-8388608,368394,-8388608,-8388608,-8388608
10:57:16.466612,-8388608,-8388608,-8388608,-8388608,369015,-8388608,-8388608,-8388608
10:57:16.480125,-8388608,-8388608,-8388608,-8388608,361796,-8388608,-8388608,-8388608
10:57:16.483270,-8388608,-8388608,-8388608,-8388608,358153,-8388608,-8388608,-8388608
10:57:16.483270,-8388608,-8388608,-8388608,-8388608,360022,-8388608,-8388608,-8388608
10:57:16.483270,-8388608,-8388608,-8388608,-8388608,364944,-8388608,-8388608,-8388608
10:57:16.483270,-8388608,-8388608,-8388608,-8388608,364014,-8388608,-8388608,-8388608
10:57:16.500122,-8388608,-8388608,-8388608,-8388608,359201,-8388608,-8388608,-8388608
10:57:16.500122,-8388608,-8388608,-8388608,-8388608,356516,-8388608,-8388608,-8388608
10:57:16.500122,-8388608,-8388608,-8388608,-8388608,359748,-8388608,-8388608,-8388608
10:57:16.500122,-8388608,-8388608,-8388608,-8388608,365484,-8388608,-8388608,-8388608
10:57:16.516806,-8388608,-8388608,-8388608,-8388608,367585,-8388608,-8388608,-8388608
10:57:16.520514,-8388608,-8388608,-8388608,-8388608,359845,-8388608,-8388608,-8388608
10:57:16.521335,-8388608,-8388608,-8388608,-8388608,352789,-8388608,-8388608,-8388608
10:57:16.521335,-8388608,-8388608,-8388608,-8388608,356468,-8388608,-8388608,-8388608
10:57:16.533016,-8388608,-8388608,-8388608,-8388608,361816,-8388608,-8388608,-8388608
10:57:16.533016,-8388608,-8388608,-8388608,-8388608,362366,-8388608,-8388608,-8388608
10:57:16.533016,-8388608,-8388608,-8388608,-8388608,357544,-8388608,-8388608,-8388608
10:57:16.533016,-8388608,-8388608,-8388608,-8388608,353269,-8388608,-8388608,-8388608
10:57:16.549238,-8388608,-8388608,-8388608,-8388608,354381,-8388608,-8388608,-8388608
10:57:16.549972,-8388608,-8388608,-8388608,-8388608,360756,-8388608,-8388608,-8388608
10:57:16.549972,-8388608,-8388608,-8388608,-8388608,364639,-8388608,-8388608,-8388608
10:57:16.549972,-8388608,-8388608,-8388608,-8388608,358867,-8388608,-8388608,-8388608
10:57:16.549972,-8388608,-8388608,-8388608,-8388608,353403,-8388608,-8388608,-8388608
10:57:16.566709,-8388608,-8388608,-8388608,-8388608,357830,-8388608,-8388608,-8388608
10:57:16.572133,-8388608,-8388608,-8388608,-8388608,360655,-8388608,-8388608,-8388608
10:57:16.573341,-8388608,-8388608,-8388608,-8388608,357565,-8388608,-8388608,-8388608
10:57:16.582125,-8388608,-8388608,-8388608,-8388608,355750,-8388608,-8388608,-8388608
10:57:16.584899,-8388608,-8388608,-8388608,-8388608,353668,-8388608,-8388608,-8388608
10:57:16.588949,-8388608,-8388608,-8388608,-8388608,357047,-8388608,-8388608,-8388608
10:57:16.592287,-8388608,-8388608,-8388608,-8388608,360834,-8388608,-8388608,-8388608
10:57:16.596273,-8388608,-8388608,-8388608,-8388608,362976,-8388608,-8388608,-8388608
10:57:16.599393,-8388608,-8388608,-8388608,-8388608,358819,-8388608,-8388608,-8388608
10:57:16.599393,-8388608,-8388608,-8388608,-8388608,353406,-8388608,-8388608,-8388608
10:57:16.599393,-8388608,-8388608,-8388608,-8388608,356849,-8388608,-8388608,-8388608
10:57:16.599393,-8388608,-8388608,-8388608,-8388608,364599,-8388608,-8388608,-8388608
10:57:16.616712,-8388608,-8388608,-8388608,-8388608,364579,-8388608,-8388608,-8388608
10:57:16.619499,-8388608,-8388608,-8388608,-8388608,355986,-8388608,-8388608,-8388608
10:57:16.620681,-8388608,-8388608,-8388608,-8388608,352927,-8388608,-8388608,-8388608
10:57:16.620681,-8388608,-8388608,-8388608,-8388608,355949,-8388608,-8388608,-8388608
10:57:16.632471,-8388608,-8388608,-8388608,-8388608,361279,-8388608,-8388608,-8388608
10:57:16.632471,-8388608,-8388608,-8388608,-8388608,364266,-8388608,-8388608,-8388608
10:57:16.632471,-8388608,-8388608,-8388608,-8388608,360561,-8388608,-8388608,-8388608
10:57:16.632471,-8388608,-8388608,-8388608,-8388608,355928,-8388608,-8388608,-8388608
10:57:16.648082,-8388608,-8388608,-8388608,-8388608,358488,-8388608,-8388608,-8388608
10:57:16.649323,-8388608,-8388608,-8388608,-8388608,363215,-8388608,-8388608,-8388608
10:57:16.649323,-8388608,-8388608,-8388608,-8388608,360659,-8388608,-8388608,-8388608
10:57:16.649323,-8388608,-8388608,-8388608,-8388608,348725,-8388608,-8388608,-8388608
10:57:16.664563,-8388608,-8388608,-8388608,-8388608,336270,-8388608,-8388608,-8388608
10:57:16.666092,-8388608,-8388608,-8388608,-8388608,332248,-8388608,-8388608,-8388608
10:57:16.666092,-8388608,-8388608,-8388608,-8388608,335245,-8388608,-8388608,-8388608
10:57:16.666092,-8388608,-8388608,-8388608,-8388608,337769,-8388608,-8388608,-8388608
10:57:16.666092,-8388608,-8388608,-8388608,-8388608,337663,-8388608,-8388608,-8388608
10:57:16.682329,-8388608,-8388608,-8388608,-8388608,337538,-8388608,-8388608,-8388608
10:57:16.682329,-8388608,-8388608,-8388608,-8388608,348520,-8388608,-8388608,-8388608
10:57:16.682329,-8388608,-8388608,-8388608,-8388608,359639,-8388608,-8388608,-8388608
10:57:16.682329,-8388608,-8388608,-8388608,-8388608,362718,-8388608,-8388608,-8388608
10:57:16.698357,-8388608,-8388608,-8388608,-8388608,353761,-8388608,-8388608,-8388608
10:57:16.698357,-8388608,-8388608,-8388608,-8388608,348844,-8388608,-8388608,-8388608
10:57:16.698357,-8388608,-8388608,-8388608,-8388608,350411,-8388608,-8388608,-8388608
10:57:16.698357,-8388608,-8388608,-8388608,-8388608,359275,-8388608,-8388608,-8388608
10:57:16.716669,-8388608,-8388608,-8388608,-8388608,360543,-8388608,-8388608,-8388608
10:57:16.719142,-8388608,-8388608,-8388608,-8388608,353848,-8388608,-8388608,-8388608
10:57:16.719142,-8388608,-8388608,-8388608,-8388608,347709,-8388608,-8388608,-8388608
10:57:16.719142,-8388608,-8388608,-8388608,-8388608,353424,-8388608,-8388608,-8388608
10:57:16.731281,-8388608,-8388608,-8388608,-8388608,359585,-8388608,-8388608,-8388608
10:57:16.732390,-8388608,-8388608,-8388608,-8388608,359251,-8388608,-8388608,-8388608
10:57:16.732390,-8388608,-8388608,-8388608,-8388608,355416,-8388608,-8388608,-8388608
10:57:16.732390,-8388608,-8388608,-8388608,-8388608,349723,-8388608,-8388608,-8388608
10:57:16.748939,-8388608,-8388608,-8388608,-8388608,351668,-8388608,-8388608,-8388608
10:57:16.749656,-8388608,-8388608,-8388608,-8388608,361446,-8388608,-8388608,-8388608
10:57:16.749656,-8388608,-8388608,-8388608,-8388608,360646,-8388608,-8388608,-8388608
10:57:16.749656,-8388608,-8388608,-8388608,-8388608,350356,-8388608,-8388608,-8388608
10:57:16.764509,-8388608,-8388608,-8388608,-8388608,347995,-8388608,-8388608,-8388608
10:57:16.766109,-8388608,-8388608,-8388608,-8388608,353124,-8388608,-8388608,-8388608
10:57:16.766109,-8388608,-8388608,-8388608,-8388608,356801,-8388608,-8388608,-8388608
10:57:16.766109,-8388608,-8388608,-8388608,-8388608,360642,-8388608,-8388608,-8388608
10:57:16.766109,-8388608,-8388608,-8388608,-8388608,355013,-8388608,-8388608,-8388608
10:57:16.782747,-8388608,-8388608,-8388608,-8388608,348387,-8388608,-8388608,-8388608
10:57:16.788066,-8388608,-8388608,-8388608,-8388608,350326,-8388608,-8388608,-8388608
10:57:16.788940,-8388608,-8388608,-8388608,-8388608,355564,-8388608,-8388608,-8388608
10:57:16.788940,-8388608,-8388608,-8388608,-8388608,357203,-8388608,-8388608,-8388608
10:57:16.800585,-8388608,-8388608,-8388608,-8388608,354638,-8388608,-8388608,-8388608
10:57:16.804095,-8388608,-8388608,-8388608,-8388608,351609,-8388608,-8388608,-8388608
10:57:16.807195,-8388608,-8388608,-8388608,-8388608,353511,-8388608,-8388608,-8388608
10:57:16.812183,-8388608,-8388608,-8388608,-8388608,359446,-8388608,-8388608,-8388608
