10:47:31.026196,-8388608,-8388608,-8388608,-8388608,285074,-8388608,-8388608,-8388608
10:47:31.026196,-8388608,-8388608,-8388608,-8388608,263701,-8388608,-8388608,-8388608
10:47:31.026196,-8388608,-8388608,-8388608,-8388608,233435,-8388608,-8388608,-8388608
10:47:31.026196,-8388608,-8388608,-8388608,-8388608,228806,-8388608,-8388608,-8388608
10:47:31.043016,-8388608,-8388608,-8388608,-8388608,263612,-8388608,-8388608,-8388608
10:47:31.043016,-8388608,-8388608,-8388608,-8388608,284620,-8388608,-8388608,-8388608
10:47:31.043016,-8388608,-8388608,-8388608,-8388608,261371,-8388608,-8388608,-8388608
10:47:31.043016,-8388608,-8388608,-8388608,-8388608,229566,-8388608,-8388608,-8388608
10:47:31.059953,-8388608,-8388608,-8388608,-8388608,223387,-8388608,-8388608,-8388608
10:47:31.059953,-8388608,-8388608,-8388608,-8388608,256736,-8388608,-8388608,-8388608
10:47:31.059953,-8388608,-8388608,-8388608,-8388608,280000,-8388608,-8388608,-8388608
10:47:31.059953,-8388608,-8388608,-8388608,-8388608,261932,-8388608,-8388608,-8388608
10:47:31.076231,-8388608,-8388608,-8388608,-8388608,229921,-8388608,-8388608,-8388608
10:47:31.076231,-8388608,-8388608,-8388608,-8388608,222748,-8388608,-8388608,-8388608
10:47:31.076231,-8388608,-8388608,-8388608,-8388608,251300,-8388608,-8388608,-8388608
10:47:31.076231,-8388608,-8388608,-8388608,-8388608,280324,-8388608,-8388608,-8388608
10:47:31.091591,-8388608,-8388608,-8388608,-8388608,267716,-8388608,-8388608,-8388608
10:47:31.093007,-8388608,-8388608,-8388608,-8388608,227312,-8388608,-8388608,-8388608
10:47:31.093007,-8388608,-8388608,-8388608,-8388608,224672,-8388608,-8388608,-8388608
10:47:31.093007,-8388608,-8388608,-8388608,-8388608,256186,-8388608,-8388608,-8388608
10:47:31.108288,-8388608,-8388608,-8388608,-8388608,279573,-8388608,-8388608,-8388608
10:47:31.110167,-8388608,-8388608,-8388608,-8388608,259368,-8388608,-8388608,-8388608
10:47:31.110167,-8388608,-8388608,-8388608,-8388608,227362,-8388608,-8388608,-8388608
10:47:31.110167,-8388608,-8388608,-8388608,-8388608,224585,-8388608,-8388608,-8388608
10:47:31.110167,-8388608,-8388608,-8388608,-8388608,255467,-8388608,-8388608,-8388608
10:47:31.127859,-8388608,-8388608,-8388608,-8388608,277103,-8388608,-8388608,-8388608
10:47:31.131160,-8388608,-8388608,-8388608,-8388608,260604,-8388608,-8388608,-8388608
10:47:31.131160,-8388608,-8388608,-8388608,-8388608,222145,-8388608,-8388608,-8388608
10:47:31.131160,-8388608,-8388608,-8388608,-8388608,218698,-8388608,-8388608,-8388608
10:47:31.142559,-8388608,-8388608,-8388608,-8388608,250874,-8388608,-8388608,-8388608
10:47:31.142559,-8388608,-8388608,-8388608,-8388608,273075,-8388608,-8388608,-8388608
10:47:31.142559,-8388608,-8388608,-8388608,-8388608,252616,-8388608,-8388608,-8388608
10:47:31.142559,-8388608,-8388608,-8388608,-8388608,220823,-8388608,-8388608,-8388608
10:47:31.159525,-8388608,-8388608,-8388608,-8388608,214488,-8388608,-8388608,-8388608
10:47:31.159525,-8388608,-8388608,-8388608,-8388608,246856,-8388608,-8388608,-8388608
10:47:31.159525,-8388608,-8388608,-8388608,-8388608,270929,-8388608,-8388608,-8388608
10:47:31.159525,-8388608,-8388608,-8388608,-8388608,251145,-8388608,-8388608,-8388608
10:47:31.175758,-8388608,-8388608,-8388608,-8388608,217813,-8388608,-8388608,-8388608
10:47:31.176248,-8388608,-8388608,-8388608,-8388608,217161,-8388608,-8388608,-8388608
10:47:31.176248,-8388608,-8388608,-8388608,-8388608,252014,-8388608,-8388608,-8388608
10:47:31.176248,-8388608,-8388608,-8388608,-8388608,275159,-8388608,-8388608,-8388608
10:47:31.191152,-8388608,-8388608,-8388608,-8388608,251699,-8388608,-8388608,-8388608
10:47:31.191869,-8388608,-8388608,-8388608,-8388608,219181,-8388608,-8388608,-8388608
10:47:31.191869,-8388608,-8388608,-8388608,-8388608,217239,-8388608,-8388608,-8388608
10:47:31.191869,-8388608,-8388608,-8388608,-8388608,247993,-8388608,-8388608,-8388608
10:47:31.206876,-8388608,-8388608,-8388608,-8388608,275101,-8388608,-8388608,-8388608
10:47:31.208772,-8388608,-8388608,-8388608,-8388608,260786,-8388608,-8388608,-8388608
10:47:31.208772,-8388608,-8388608,-8388608,-8388608,226777,-8388608,-8388608,-8388608
10:47:31.208772,-8388608,-8388608,-8388608,-8388608,223999,-8388608,-8388608,-8388608
10:47:31.223778,-8388608,-8388608,-8388608,-8388608,255830,-8388608,-8388608,-8388608
10:47:31.227537,-8388608,-8388608,-8388608,-8388608,280172,-8388608,-8388608,-8388608
10:47:31.229235,-8388608,-8388608,-8388608,-8388608,267089,-8388608,-8388608,-8388608
10:47:31.229235,-8388608,-8388608,-8388608,-8388608,234258,-8388608,-8388608,-8388608
10:47:31.229235,-8388608,-8388608,-8388608,-8388608,225861,-8388608,-8388608,-8388608
10:47:31.241968,-8388608,-8388608,-8388608,-8388608,266077,-8388608,-8388608,-8388608
10:47:31.247194,-8388608,-8388608,-8388608,-8388608,288969,-8388608,-8388608,-8388608
10:47:31.248056,-8388608,-8388608,-8388608,-8388608,272516,-8388608,-8388608,-8388608
10:47:31.248056,-8388608,-8388608,-8388608,-8388608,236981,-8388608,-8388608,-8388608
10:47:31.258895,-8388608,-8388608,-8388608,-8388608,229852,-8388608,-8388608,-8388608
10:47:31.263304,-8388608,-8388608,-8388608,-8388608,265114,-8388608,-8388608,-8388608
10:47:31.263304,-8388608,-8388608,-8388608,-8388608,291685,-8388608,-8388608,-8388608
10:47:31.263304,-8388608,-8388608,-8388608,-8388608,273218,-8388608,-8388608,-8388608
10:47:31.275429,-8388608,-8388608,-8388608,-8388608,242099,-8388608,-8388608,-8388608
10:47:31.279433,-8388608,-8388608,-8388608,-8388608,237860,-8388608,-8388608,-8388608
10:47:31.283442,-8388608,-8388608,-8388608,-8388608,264706,-8388608,-8388608,-8388608
10:47:31.287432,-8388608,-8388608,-8388608,-8388608,290516,-8388608,-8388608,-8388608
10:47:31.292170,-8388608,-8388608,-8388608,-8388608,278981,-8388608,-8388608,-8388608
10:47:31.292170,-8388608,-8388608,-8388608,-8388608,241778,-8388608,-8388608,-8388608
10:47:31.292170,-8388608,-8388608,-8388608,-8388608,230581,-8388608,-8388608,-8388608
10:47:31.292170,-8388608,-8388608,-8388608,-8388608,270356,-8388608,-8388608,-8388608
10:47:31.307788,-8388608,-8388608,-8388608,-8388608,301159,-8388608,-8388608,-8388608
10:47:31.309152,-8388608,-8388608,-8388608,-8388608,272282,-8388608,-8388608,-8388608
10:47:31.309152,-8388608,-8388608,-8388608,-8388608,235284,-8388608,-8388608,-8388608
10:47:31.309152,-8388608,-8388608,-8388608,-8388608,230723,-8388608,-8388608,-8388608
10:47:31.309152,-8388608,-8388608,-8388608,-8388608,264168,-8388608,-8388608,-8388608
10:47:31.327096,-8388608,-8388608,-8388608,-8388608,293318,-8388608,-8388608,-8388608
10:47:31.327096,-8388608,-8388608,-8388608,-8388608,275176,-8388608,-8388608,-8388608
10:47:31.327096,-8388608,-8388608,-8388608,-8388608,242038,-8388608,-8388608,-8388608
10:47:31.327096,-8388608,-8388608,-8388608,-8388608,234112,-8388608,-8388608,-8388608
10:47:31.343010,-8388608,-8388608,-8388608,-8388608,265866,-8388608,-8388608,-8388608
10:47:31.346010,-8388608,-8388608,-8388608,-8388608,294001,-8388608,-8388608,-8388608
10:47:31.346010,-8388608,-8388608,-8388608,-8388608,273156,-8388608,-8388608,-8388608
10:47:31.346010,-8388608,-8388608,-8388608,-8388608,240438,-8388608,-8388608,-8388608
10:47:31.358412,-8388608,-8388608,-8388608,-8388608,234349,-8388608,-8388608,-8388608
10:47:31.358412,-8388608,-8388608,-8388608,-8388608,266301,-8388608,-8388608,-8388608
10:47:31.358412,-8388608,-8388608,-8388608,-8388608,298262,-8388608,-8388608,-8388608
10:47:31.358412,-8388608,-8388608,-8388608,-8388608,275272,-8388608,-8388608,-8388608
10:47:31.375170,-8388608,-8388608,-8388608,-8388608,234881,-8388608,-8388608,-8388608
10:47:31.375170,-8388608,-8388608,-8388608,-8388608,233196,-8388608,-8388608,-8388608
10:47:31.375170,-8388608,-8388608,-8388608,-8388608,265319,-8388608,-8388608,-8388608
10:47:31.375170,-8388608,-8388608,-8388608,-8388608,295157,-8388608,-8388608,-8388608
10:47:31.390985,-8388608,-8388608,-8388608,-8388608,274123,-8388608,-8388608,-8388608
10:47:31.391984,-8388608,-8388608,-8388608,-8388608,237145,-8388608,-8388608,-8388608
10:47:31.391984,-8388608,-8388608,-8388608,-8388608,234213,-8388608,-8388608,-8388608
10:47:31.391984,-8388608,-8388608,-8388608,-8388608,267773,-8388608,-8388608,-8388608
10:47:31.391984,-8388608,-8388608,-8388608,-8388608,295615,-8388608,-8388608,-8388608
10:47:31.408997,-8388608,-8388608,-8388608,-8388608,273290,-8388608,-8388608,-8388608
10:47:31.408997,-8388608,-8388608,-8388608,-8388608,231911,-8388608,-8388608,-8388608
10:47:31.408997,-8388608,-8388608,-8388608,-8388608,228999,-8388608,-8388608,-8388608
10:47:31.408997,-8388608,-8388608,-8388608,-8388608,260366,-8388608,-8388608,-8388608
10:47:31.425390,-8388608,-8388608,-8388608,-8388608,284742,-8388608,-8388608,-8388608
10:47:31.425390,-8388608,-8388608,-8388608,-8388608,273169,-8388608,-8388608,-8388608
10:47:31.425390,-8388608,-8388608,-8388608,-8388608,239998,-8388608,-8388608,-8388608
10:47:31.425390,-8388608,-8388608,-8388608,-8388608,229986,-8388608,-8388608,-8388608
10:47:31.442142,-8388608,-8388608,-8388608,-8388608,258152,-8388608,-8388608,-8388608
10:47:31.445666,-8388608,-8388608,-8388608,-8388608,285364,-8388608,-8388608,-8388608
10:47:31.445666,-8388608,-8388608,-8388608,-8388608,271134,-8388608,-8388608,-8388608
10:47:31.445666,-8388608,-8388608,-8388608,-8388608,238592,-8388608,-8388608,-8388608
10:47:31.458449,-8388608,-8388608,-8388608,-8388608,231776,-8388608,-8388608,-8388608
10:47:31.462282,-8388608,-8388608,-8388608,-8388608,262724,-8388608,-8388608,-8388608
10:47:31.463748,-8388608,-8388608,-8388608,-8388608,290834,-8388608,-8388608,-8388608
10:47:31.463748,-8388608,-8388608,-8388608,-8388608,276355,-8388608,-8388608,-8388608
10:47:31.475384,-8388608,-8388608,-8388608,-8388608,239351,-8388608,-8388608,-8388608
10:47:31.481386,-8388608,-8388608,-8388608,-8388608,234343,-8388608,-8388608,-8388608
10:47:31.483421,-8388608,-8388608,-8388608,-8388608,260811,-8388608,-8388608,-8388608
10:47:31.488419,-8388608,-8388608,-8388608,-8388608,289538,-8388608,-8388608,-8388608
10:47:31.490967,-8388608,-8388608,-8388608,-8388608,270598,-8388608,-8388608,-8388608
10:47:31.492060,-8388608,-8388608,-8388608,-8388608,235297,-8388608,-8388608,-8388608
10:47:31.492060,-8388608,-8388608,-8388608,-8388608,229919,-8388608,-8388608,-8388608
10:47:31.492060,-8388608,-8388608,-8388608,-8388608,260671,-8388608,-8388608,-8388608
10:47:31.492060,-8388608,-8388608,-8388608,-8388608,283865,-8388608,-8388608,-8388608
10:47:31.508593,-8388608,-8388608,-8388608,-8388608,269063,-8388608,-8388608,-8388608
10:47:31.508593,-8388608,-8388608,-8388608,-8388608,236214,-8388608,-8388608,-8388608
10:47:31.508593,-8388608,-8388608,-8388608,-8388608,231508,-8388608,-8388608,-8388608
10:47:31.508593,-8388608,-8388608,-8388608,-8388608,262408,-8388608,-8388608,-8388608
10:47:31.524861,-8388608,-8388608,-8388608,-8388608,292628,-8388608,-8388608,-8388608
10:47:31.524861,-8388608,-8388608,-8388608,-8388608,275000,-8388608,-8388608,-8388608
10:47:31.524861,-8388608,-8388608,-8388608,-8388608,237383,-8388608,-8388608,-8388608
10:47:31.539881,-8388608,-8388608,-8388608,-8388608,231027,-8388608,-8388608,-8388608
10:47:31.542904,-8388608,-8388608,-8388608,-8388608,263393,-8388608,-8388608,-8388608
10:47:31.544956,-8388608,-8388608,-8388608,-8388608,290637,-8388608,-8388608,-8388608
10:47:31.544956,-8388608,-8388608,-8388608,-8388608,276787,-8388608,-8388608,-8388608
10:47:31.544956,-8388608,-8388608,-8388608,-8388608,239919,-8388608,-8388608,-8388608
10:47:31.558523,-8388608,-8388608,-8388608,-8388608,232823,-8388608,-8388608,-8388608
10:47:31.558523,-8388608,-8388608,-8388608,-8388608,264857,-8388608,-8388608,-8388608
10:47:31.573543,-8388608,-8388608,-8388608,-8388608,286019,-8388608,-8388608,-8388608
10:47:31.575550,-8388608,-8388608,-8388608,-8388608,273437,-8388608,-8388608,-8388608
10:47:31.575550,-8388608,-8388608,-8388608,-8388608,242368,-8388608,-8388608,-8388608
10:47:31.575550,-8388608,-8388608,-8388608,-8388608,229012,-8388608,-8388608,-8388608
10:47:31.575550,-8388608,-8388608,-8388608,-8388608,259201,-8388608,-8388608,-8388608
10:47:31.575550,-8388608,-8388608,-8388608,-8388608,287423,-8388608,-8388608,-8388608
10:47:31.592255,-8388608,-8388608,-8388608,-8388608,270986,-8388608,-8388608,-8388608
10:47:31.592255,-8388608,-8388608,-8388608,-8388608,235311,-8388608,-8388608,-8388608
10:47:31.592255,-8388608,-8388608,-8388608,-8388608,229773,-8388608,-8388608,-8388608
10:47:31.592255,-8388608,-8388608,-8388608,-8388608,265926,-8388608,-8388608,-8388608
10:47:31.592255,-8388608,-8388608,-8388608,-8388608,290536,-8388608,-8388608,-8388608
10:47:31.609232,-8388608,-8388608,-8388608,-8388608,271161,-8388608,-8388608,-8388608
10:47:31.609232,-8388608,-8388608,-8388608,-8388608,235593,-8388608,-8388608,-8388608
10:47:31.609232,-8388608,-8388608,-8388608,-8388608,230403,-8388608,-8388608,-8388608
10:47:31.609232,-8388608,-8388608,-8388608,-8388608,259562,-8388608,-8388608,-8388608
10:47:31.625875,-8388608,-8388608,-8388608,-8388608,291044,-8388608,-8388608,-8388608
10:47:31.625875,-8388608,-8388608,-8388608,-8388608,278458,-8388608,-8388608,-8388608
10:47:31.625875,-8388608,-8388608,-8388608,-8388608,240096,-8388608,-8388608,-8388608
10:47:31.625875,-8388608,-8388608,-8388608,-8388608,229922,-8388608,-8388608,-8388608
10:47:31.642414,-8388608,-8388608,-8388608,-8388608,258258,-8388608,-8388608,-8388608
10:47:31.642414,-8388608,-8388608,-8388608,-8388608,282486,-8388608,-8388608,-8388608
10:47:31.642414,-8388608,-8388608,-8388608,-8388608,267436,-8388608,-8388608,-8388608
10:47:31.642414,-8388608,-8388608,-8388608,-8388608,234498,-8388608,-8388608,-8388608
10:47:31.658817,-8388608,-8388608,-8388608,-8388608,225492,-8388608,-8388608,-8388608
10:47:31.663546,-8388608,-8388608,-8388608,-8388608,257916,-8388608,-8388608,-8388608
10:47:31.664886,-8388608,-8388608,-8388608,-8388608,284068,-8388608,-8388608,-8388608
10:47:31.664886,-8388608,-8388608,-8388608,-8388608,268001,-8388608,-8388608,-8388608
10:47:31.675375,-8388608,-8388608,-8388608,-8388608,236991,-8388608,-8388608,-8388608
10:47:31.675375,-8388608,-8388608,-8388608,-8388608,230473,-8388608,-8388608,-8388608
10:47:31.681689,-8388608,-8388608,-8388608,-8388608,257876,-8388608,-8388608,-8388608
10:47:31.681689,-8388608,-8388608,-8388608,-8388608,285277,-8388608,-8388608,-8388608
10:47:31.691369,-8388608,-8388608,-8388608,-8388608,278125,-8388608,-8388608,-8388608
10:47:31.695273,-8388608,-8388608,-8388608,-8388608,245637,-8388608,-8388608,-8388608
10:47:31.700176,-8388608,-8388608,-8388608,-8388608,231042,-8388608,-8388608,-8388608
10:47:31.704067,-8388608,-8388608,-8388608,-8388608,260548,-8388608,-8388608,-8388608
10:47:31.706482,-8388608,-8388608,-8388608,-8388608,289923,-8388608,-8388608,-8388608
10:47:31.708579,-8388608,-8388608,-8388608,-8388608,274796,-8388608,-8388608,-8388608
10:47:31.708579,-8388608,-8388608,-8388608,-8388608,241630,-8388608,-8388608,-8388608
10:47:31.708579,-8388608,-8388608,-8388608,-8388608,231999,-8388608,-8388608,-8388608
10:47:31.723209,-8388608,-8388608,-8388608,-8388608,261241,-8388608,-8388608,-8388608
10:47:31.725496,-8388608,-8388608,-8388608,-8388608,291520,-8388608,-8388608,-8388608
10:47:31.725496,-8388608,-8388608,-8388608,-8388608,279679,-8388608,-8388608,-8388608
10:47:31.725496,-8388608,-8388608,-8388608,-8388608,242659,-8388608,-8388608,-8388608
10:47:31.725496,-8388608,-8388608,-8388608,-8388608,228488,-8388608,-8388608,-8388608
10:47:31.741959,-8388608,-8388608,-8388608,-8388608,258494,-8388608,-8388608,-8388608
10:47:31.741959,-8388608,-8388608,-8388608,-8388608,288149,-8388608,-8388608,-8388608
10:47:31.741959,-8388608,-8388608,-8388608,-8388608,278376,-8388608,-8388608,-8388608
10:47:31.741959,-8388608,-8388608,-8388608,-8388608,239633,-8388608,-8388608,-8388608
10:47:31.759687,-8388608,-8388608,-8388608,-8388608,233061,-8388608,-8388608,-8388608
10:47:31.762639,-8388608,-8388608,-8388608,-8388608,263746,-8388608,-8388608,-8388608
10:47:31.764116,-8388608,-8388608,-8388608,-8388608,281104,-8388608,-8388608,-8388608
10:47:31.764116,-8388608,-8388608,-8388608,-8388608,271101,-8388608,-8388608,-8388608
10:47:31.774231,-8388608,-8388608,-8388608,-8388608,227846,-8388608,-8388608,-8388608
10:47:31.775160,-8388608,-8388608,-8388608,-8388608,204821,-8388608,-8388608,-8388608
10:47:31.775160,-8388608,-8388608,-8388608,-8388608,225575,-8388608,-8388608,-8388608
10:47:31.775160,-8388608,-8388608,-8388608,-8388608,246466,-8388608,-8388608,-8388608
10:47:31.790779,-8388608,-8388608,-8388608,-8388608,229854,-8388608,-8388608,-8388608
10:47:31.792070,-8388608,-8388608,-8388608,-8388608,201273,-8388608,-8388608,-8388608
10:47:31.792070,-8388608,-8388608,-8388608,-8388608,206886,-8388608,-8388608,-8388608
10:47:31.792070,-8388608,-8388608,-8388608,-8388608,253552,-8388608,-8388608,-8388608
10:47:31.807418,-8388608,-8388608,-8388608,-8388608,299591,-8388608,-8388608,-8388608
10:47:31.808988,-8388608,-8388608,-8388608,-8388608,293426,-8388608,-8388608,-8388608
10:47:31.808988,-8388608,-8388608,-8388608,-8388608,258278,-8388608,-8388608,-8388608
10:47:31.808988,-8388608,-8388608,-8388608,-8388608,245273,-8388608,-8388608,-8388608
10:47:31.808988,-8388608,-8388608,-8388608,-8388608,261106,-8388608,-8388608,-8388608
10:47:31.825971,-8388608,-8388608,-8388608,-8388608,281426,-8388608,-8388608,-8388608
10:47:31.825971,-8388608,-8388608,-8388608,-8388608,269758,-8388608,-8388608,-8388608
10:47:31.825971,-8388608,-8388608,-8388608,-8388608,239213,-8388608,-8388608,-8388608
10:47:31.825971,-8388608,-8388608,-8388608,-8388608,231338,-8388608,-8388608,-8388608
10:47:31.842291,-8388608,-8388608,-8388608,-8388608,256704,-8388608,-8388608,-8388608
10:47:31.842291,-8388608,-8388608,-8388608,-8388608,284487,-8388608,-8388608,-8388608
10:47:31.842291,-8388608,-8388608,-8388608,-8388608,275789,-8388608,-8388608,-8388608
10:47:31.842291,-8388608,-8388608,-8388608,-8388608,240821,-8388608,-8388608,-8388608
10:47:31.858512,-8388608,-8388608,-8388608,-8388608,227424,-8388608,-8388608,-8388608
10:47:31.859255,-8388608,-8388608,-8388608,-8388608,257841,-8388608,-8388608,-8388608
10:47:31.859255,-8388608,-8388608,-8388608,-8388608,286308,-8388608,-8388608,-8388608
10:47:31.859255,-8388608,-8388608,-8388608,-8388608,275863,-8388608,-8388608,-8388608
10:47:31.874081,-8388608,-8388608,-8388608,-8388608,234880,-8388608,-8388608,-8388608
10:47:31.880609,-8388608,-8388608,-8388608,-8388608,227896,-8388608,-8388608,-8388608
10:47:31.880609,-8388608,-8388608,-8388608,-8388608,255744,-8388608,-8388608,-8388608
10:47:31.880609,-8388608,-8388608,-8388608,-8388608,283909,-8388608,-8388608,-8388608
10:47:31.890791,-8388608,-8388608,-8388608,-8388608,276244,-8388608,-8388608,-8388608
10:47:31.891829,-8388608,-8388608,-8388608,-8388608,238210,-8388608,-8388608,-8388608
10:47:31.891829,-8388608,-8388608,-8388608,-8388608,222891,-8388608,-8388608,-8388608
10:47:31.891829,-8388608,-8388608,-8388608,-8388608,253258,-8388608,-8388608,-8388608
10:47:31.891829,-8388608,-8388608,-8388608,-8388608,277296,-8388608,-8388608,-8388608
10:47:31.909012,-8388608,-8388608,-8388608,-8388608,261657,-8388608,-8388608,-8388608
10:47:31.914035,-8388608,-8388608,-8388608,-8388608,235326,-8388608,-8388608,-8388608
10:47:31.914035,-8388608,-8388608,-8388608,-8388608,222643,-8388608,-8388608,-8388608
10:47:31.914035,-8388608,-8388608,-8388608,-8388608,254206,-8388608,-8388608,-8388608
10:47:31.924997,-8388608,-8388608,-8388608,-8388608,286302,-8388608,-8388608,-8388608
10:47:31.929996,-8388608,-8388608,-8388608,-8388608,270866,-8388608,-8388608,-8388608
10:47:31.934833,-8388608,-8388608,-8388608,-8388608,230443,-8388608,-8388608,-8388608
10:47:31.937846,-8388608,-8388608,-8388608,-8388608,217283,-8388608,-8388608,-8388608
10:47:31.941771,-8388608,-8388608,-8388608,-8388608,247334,-8388608,-8388608,-8388608
10:47:31.941771,-8388608,-8388608,-8388608,-8388608,274709,-8388608,-8388608,-8388608
10:47:31.941771,-8388608,-8388608,-8388608,-8388608,268399,-8388608,-8388608,-8388608
10:47:31.941771,-8388608,-8388608,-8388608,-8388608,232448,-8388608,-8388608,-8388608
10:47:31.958000,-8388608,-8388608,-8388608,-8388608,216408,-8388608,-8388608,-8388608
10:47:31.958000,-8388608,-8388608,-8388608,-8388608,245210,-8388608,-8388608,-8388608
10:47:31.958000,-8388608,-8388608,-8388608,-8388608,275244,-8388608,-8388608,-8388608
10:47:31.958000,-8388608,-8388608,-8388608,-8388608,259851,-8388608,-8388608,-8388608
10:47:31.973881,-8388608,-8388608,-8388608,-8388608,226023,-8388608,-8388608,-8388608
10:47:31.977888,-8388608,-8388608,-8388608,-8388608,213353,-8388608,-8388608,-8388608
10:47:31.981345,-8388608,-8388608,-8388608,-8388608,238554,-8388608,-8388608,-8388608
10:47:31.981345,-8388608,-8388608,-8388608,-8388608,270036,-8388608,-8388608,-8388608
10:47:31.990399,-8388608,-8388608,-8388608,-8388608,262743,-8388608,-8388608,-8388608
10:47:31.991602,-8388608,-8388608,-8388608,-8388608,229206,-8388608,-8388608,-8388608
10:47:31.991602,-8388608,-8388608,-8388608,-8388608,214432,-8388608,-8388608,-8388608
10:47:31.991602,-8388608,-8388608,-8388608,-8388608,237451,-8388608,-8388608,-8388608
10:47:32.006111,-8388608,-8388608,-8388608,-8388608,268189,-8388608,-8388608,-8388608
10:47:32.007781,-8388608,-8388608,-8388608,-8388608,257451,-8388608,-8388608,-8388608
10:47:32.007781,-8388608,-8388608,-8388608,-8388608,220454,-8388608,-8388608,-8388608
10:47:32.007781,-8388608,-8388608,-8388608,-8388608,213221,-8388608,-8388608,-8388608
10:47:32.007781,-8388608,-8388608,-8388608,-8388608,245323,-8388608,-8388608,-8388608
10:47:32.025937,-8388608,-8388608,-8388608,-8388608,273103,-8388608,-8388608,-8388608
10:47:32.030240,-8388608,-8388608,-8388608,-8388608,264231,-8388608,-8388608,-8388608
10:47:32.030240,-8388608,-8388608,-8388608,-8388608,231241,-8388608,-8388608,-8388608
10:47:32.030240,-8388608,-8388608,-8388608,-8388608,218844,-8388608,-8388608,-8388608
10:47:32.043593,-8388608,-8388608,-8388608,-8388608,254962,-8388608,-8388608,-8388608
10:47:32.046931,-8388608,-8388608,-8388608,-8388608,278959,-8388608,-8388608,-8388608
10:47:32.046931,-8388608,-8388608,-8388608,-8388608,271761,-8388608,-8388608,-8388608
10:47:32.046931,-8388608,-8388608,-8388608,-8388608,242621,-8388608,-8388608,-8388608
10:47:32.061039,-8388608,-8388608,-8388608,-8388608,224133,-8388608,-8388608,-8388608
10:47:32.062180,-8388608,-8388608,-8388608,-8388608,252787,-8388608,-8388608,-8388608
10:47:32.062180,-8388608,-8388608,-8388608,-8388608,286370,-8388608,-8388608,-8388608
10:47:32.062180,-8388608,-8388608,-8388608,-8388608,278742,-8388608,-8388608,-8388608
10:47:32.074856,-8388608,-8388608,-8388608,-8388608,242646,-8388608,-8388608,-8388608
10:47:32.077863,-8388608,-8388608,-8388608,-8388608,228174,-8388608,-8388608,-8388608
10:47:32.080137,-8388608,-8388608,-8388608,-8388608,256176,-8388608,-8388608,-8388608
10:47:32.080137,-8388608,-8388608,-8388608,-8388608,292916,-8388608,-8388608,-8388608
10:47:32.090422,-8388608,-8388608,-8388608,-8388608,280475,-8388608,-8388608,-8388608
10:47:32.094946,-8388608,-8388608,-8388608,-8388608,246178,-8388608,-8388608,-8388608
10:47:32.096090,-8388608,-8388608,-8388608,-8388608,236994,-8388608,-8388608,-8388608
10:47:32.096090,-8388608,-8388608,-8388608,-8388608,258174,-8388608,-8388608,-8388608
10:47:32.107029,-8388608,-8388608,-8388608,-8388608,288204,-8388608,-8388608,-8388608
10:47:32.111380,-8388608,-8388608,-8388608,-8388608,279909,-8388608,-8388608,-8388608
10:47:32.112829,-8388608,-8388608,-8388608,-8388608,249794,-8388608,-8388608,-8388608
10:47:32.112829,-8388608,-8388608,-8388608,-8388608,236919,-8388608,-8388608,-8388608
10:47:32.123924,-8388608,-8388608,-8388608,-8388608,259521,-8388608,-8388608,-8388608
10:47:32.128610,-8388608,-8388608,-8388608,-8388608,289811,-8388608,-8388608,-8388608
10:47:32.128610,-8388608,-8388608,-8388608,-8388608,281533,-8388608,-8388608,-8388608
10:47:32.128610,-8388608,-8388608,-8388608,-8388608,247553,-8388608,-8388608,-8388608
10:47:32.128610,-8388608,-8388608,-8388608,-8388608,234512,-8388608,-8388608,-8388608
10:47:32.143426,-8388608,-8388608,-8388608,-8388608,262978,-8388608,-8388608,-8388608
10:47:32.146424,-8388608,-8388608,-8388608,-8388608,291354,-8388608,-8388608,-8388608
10:47:32.149116,-8388608,-8388608,-8388608,-8388608,285503,-8388608,-8388608,-8388608
10:47:32.149116,-8388608,-8388608,-8388608,-8388608,241481,-8388608,-8388608,-8388608
10:47:32.158098,-8388608,-8388608,-8388608,-8388608,230517,-8388608,-8388608,-8388608
10:47:32.162195,-8388608,-8388608,-8388608,-8388608,259291,-8388608,-8388608,-8388608
10:47:32.166139,-8388608,-8388608,-8388608,-8388608,289429,-8388608,-8388608,-8388608
10:47:32.170181,-8388608,-8388608,-8388608,-8388608,278683,-8388608,-8388608,-8388608
10:47:32.174770,-8388608,-8388608,-8388608,-8388608,244348,-8388608,-8388608,-8388608
10:47:32.176619,-8388608,-8388608,-8388608,-8388608,236963,-8388608,-8388608,-8388608
10:47:32.176619,-8388608,-8388608,-8388608,-8388608,259401,-8388608,-8388608,-8388608
10:47:32.185202,-8388608,-8388608,-8388608,-8388608,284846,-8388608,-8388608,-8388608
10:47:32.190299,-8388608,-8388608,-8388608,-8388608,280106,-8388608,-8388608,-8388608
10:47:32.195955,-8388608,-8388608,-8388608,-8388608,250038,-8388608,-8388608,-8388608
10:47:32.197580,-8388608,-8388608,-8388608,-8388608,236156,-8388608,-8388608,-8388608
10:47:32.197580,-8388608,-8388608,-8388608,-8388608,260887,-8388608,-8388608,-8388608
10:47:32.206920,-8388608,-8388608,-8388608,-8388608,290589,-8388608,-8388608,-8388608
10:47:32.207809,-8388608,-8388608,-8388608,-8388608,280028,-8388608,-8388608,-8388608
10:47:32.207809,-8388608,-8388608,-8388608,-8388608,241224,-8388608,-8388608,-8388608
10:47:32.207809,-8388608,-8388608,-8388608,-8388608,231748,-8388608,-8388608,-8388608
10:47:32.207809,-8388608,-8388608,-8388608,-8388608,262746,-8388608,-8388608,-8388608
10:47:32.226203,-8388608,-8388608,-8388608,-8388608,293154,-8388608,-8388608,-8388608
10:47:32.230257,-8388608,-8388608,-8388608,-8388608,286304,-8388608,-8388608,-8388608
10:47:32.235474,-8388608,-8388608,-8388608,-8388608,245505,-8388608,-8388608,-8388608
10:47:32.238212,-8388608,-8388608,-8388608,-8388608,230983,-8388608,-8388608,-8388608
10:47:32.242214,-8388608,-8388608,-8388608,-8388608,256186,-8388608,-8388608,-8388608
10:47:32.243404,-8388608,-8388608,-8388608,-8388608,288824,-8388608,-8388608,-8388608
10:47:32.243404,-8388608,-8388608,-8388608,-8388608,275723,-8388608,-8388608,-8388608
10:47:32.243404,-8388608,-8388608,-8388608,-8388608,240781,-8388608,-8388608,-8388608
10:47:32.258612,-8388608,-8388608,-8388608,-8388608,231551,-8388608,-8388608,-8388608
10:47:32.258612,-8388608,-8388608,-8388608,-8388608,262555,-8388608,-8388608,-8388608
10:47:32.258612,-8388608,-8388608,-8388608,-8388608,291389,-8388608,-8388608,-8388608
10:47:32.258612,-8388608,-8388608,-8388608,-8388608,278153,-8388608,-8388608,-8388608
10:47:32.273770,-8388608,-8388608,-8388608,-8388608,244181,-8388608,-8388608,-8388608
10:47:32.275300,-8388608,-8388608,-8388608,-8388608,234338,-8388608,-8388608,-8388608
10:47:32.275300,-8388608,-8388608,-8388608,-8388608,263694,-8388608,-8388608,-8388608
10:47:32.275300,-8388608,-8388608,-8388608,-8388608,289213,-8388608,-8388608,-8388608
10:47:32.290450,-8388608,-8388608,-8388608,-8388608,277203,-8388608,-8388608,-8388608
10:47:32.292853,-8388608,-8388608,-8388608,-8388608,246564,-8388608,-8388608,-8388608
10:47:32.292853,-8388608,-8388608,-8388608,-8388608,237251,-8388608,-8388608,-8388608
10:47:32.292853,-8388608,-8388608,-8388608,-8388608,262736,-8388608,-8388608,-8388608
10:47:32.292853,-8388608,-8388608,-8388608,-8388608,287454,-8388608,-8388608,-8388608
10:47:32.310201,-8388608,-8388608,-8388608,-8388608,280581,-8388608,-8388608,-8388608
10:47:32.314669,-8388608,-8388608,-8388608,-8388608,243171,-8388608,-8388608,-8388608
10:47:32.318260,-8388608,-8388608,-8388608,-8388608,231136,-8388608,-8388608,-8388608
10:47:32.321359,-8388608,-8388608,-8388608,-8388608,261254,-8388608,-8388608,-8388608
10:47:32.325362,-8388608,-8388608,-8388608,-8388608,287607,-8388608,-8388608,-8388608
10:47:32.331247,-8388608,-8388608,-8388608,-8388608,279270,-8388608,-8388608,-8388608
10:47:32.331247,-8388608,-8388608,-8388608,-8388608,248893,-8388608,-8388608,-8388608
10:47:32.331247,-8388608,-8388608,-8388608,-8388608,232493,-8388608,-8388608,-8388608
10:47:32.342420,-8388608,-8388608,-8388608,-8388608,257869,-8388608,-8388608,-8388608
10:47:32.345202,-8388608,-8388608,-8388608,-8388608,281928,-8388608,-8388608,-8388608
10:47:32.345202,-8388608,-8388608,-8388608,-8388608,279008,-8388608,-8388608,-8388608
10:47:32.345202,-8388608,-8388608,-8388608,-8388608,252105,-8388608,-8388608,-8388608
10:47:32.358148,-8388608,-8388608,-8388608,-8388608,235140,-8388608,-8388608,-8388608
10:47:32.361925,-8388608,-8388608,-8388608,-8388608,259011,-8388608,-8388608,-8388608
10:47:32.362408,-8388608,-8388608,-8388608,-8388608,291142,-8388608,-8388608,-8388608
10:47:32.362408,-8388608,-8388608,-8388608,-8388608,283436,-8388608,-8388608,-8388608
10:47:32.373769,-8388608,-8388608,-8388608,-8388608,242809,-8388608,-8388608,-8388608
10:47:32.376774,-8388608,-8388608,-8388608,-8388608,233060,-8388608,-8388608,-8388608
10:47:32.379657,-8388608,-8388608,-8388608,-8388608,261864,-8388608,-8388608,-8388608
10:47:32.379657,-8388608,-8388608,-8388608,-8388608,289379,-8388608,-8388608,-8388608
10:47:32.390382,-8388608,-8388608,-8388608,-8388608,283956,-8388608,-8388608,-8388608
10:47:32.393904,-8388608,-8388608,-8388608,-8388608,247655,-8388608,-8388608,-8388608
10:47:32.395608,-8388608,-8388608,-8388608,-8388608,231733,-8388608,-8388608,-8388608
10:47:32.395608,-8388608,-8388608,-8388608,-8388608,254648,-8388608,-8388608,-8388608
10:47:32.395608,-8388608,-8388608,-8388608,-8388608,284979,-8388608,-8388608,-8388608
10:47:32.409047,-8388608,-8388608,-8388608,-8388608,277078,-8388608,-8388608,-8388608
10:47:32.412773,-8388608,-8388608,-8388608,-8388608,242754,-8388608,-8388608,-8388608
10:47:32.412773,-8388608,-8388608,-8388608,-8388608,233741,-8388608,-8388608,-8388608
10:47:32.412773,-8388608,-8388608,-8388608,-8388608,260408,-8388608,-8388608,-8388608
10:47:32.425471,-8388608,-8388608,-8388608,-8388608,290486,-8388608,-8388608,-8388608
10:47:32.429206,-8388608,-8388608,-8388608,-8388608,278474,-8388608,-8388608,-8388608
10:47:32.429206,-8388608,-8388608,-8388608,-8388608,247342,-8388608,-8388608,-8388608
10:47:32.429206,-8388608,-8388608,-8388608,-8388608,234263,-8388608,-8388608,-8388608
10:47:32.442315,-8388608,-8388608,-8388608,-8388608,258331,-8388608,-8388608,-8388608
10:47:32.446308,-8388608,-8388608,-8388608,-8388608,285999,-8388608,-8388608,-8388608
10:47:32.447238,-8388608,-8388608,-8388608,-8388608,278344,-8388608,-8388608,-8388608
10:47:32.447238,-8388608,-8388608,-8388608,-8388608,247953,-8388608,-8388608,-8388608
10:47:32.456776,-8388608,-8388608,-8388608,-8388608,235033,-8388608,-8388608,-8388608
10:47:32.460782,-8388608,-8388608,-8388608,-8388608,257611,-8388608,-8388608,-8388608
10:47:32.463448,-8388608,-8388608,-8388608,-8388608,285390,-8388608,-8388608,-8388608
10:47:32.463448,-8388608,-8388608,-8388608,-8388608,284043,-8388608,-8388608,-8388608
10:47:32.473575,-8388608,-8388608,-8388608,-8388608,246773,-8388608,-8388608,-8388608
10:47:32.477584,-8388608,-8388608,-8388608,-8388608,231958,-8388608,-8388608,-8388608
10:47:32.481583,-8388608,-8388608,-8388608,-8388608,256569,-8388608,-8388608,-8388608
10:47:32.485598,-8388608,-8388608,-8388608,-8388608,287578,-8388608,-8388608,-8388608
10:47:32.489602,-8388608,-8388608,-8388608,-8388608,280204,-8388608,-8388608,-8388608
10:47:32.491871,-8388608,-8388608,-8388608,-8388608,244764,-8388608,-8388608,-8388608
10:47:32.491871,-8388608,-8388608,-8388608,-8388608,231729,-8388608,-8388608,-8388608
10:47:32.491871,-8388608,-8388608,-8388608,-8388608,258048,-8388608,-8388608,-8388608
10:47:32.506471,-8388608,-8388608,-8388608,-8388608,285398,-8388608,-8388608,-8388608
10:47:32.507947,-8388608,-8388608,-8388608,-8388608,277914,-8388608,-8388608,-8388608
10:47:32.507947,-8388608,-8388608,-8388608,-8388608,251489,-8388608,-8388608,-8388608
10:47:32.507947,-8388608,-8388608,-8388608,-8388608,235575,-8388608,-8388608,-8388608
10:47:32.523564,-8388608,-8388608,-8388608,-8388608,257755,-8388608,-8388608,-8388608
10:47:32.527612,-8388608,-8388608,-8388608,-8388608,287626,-8388608,-8388608,-8388608
10:47:32.529917,-8388608,-8388608,-8388608,-8388608,279018,-8388608,-8388608,-8388608
10:47:32.529917,-8388608,-8388608,-8388608,-8388608,240225,-8388608,-8388608,-8388608
10:47:32.529917,-8388608,-8388608,-8388608,-8388608,232783,-8388608,-8388608,-8388608
10:47:32.541293,-8388608,-8388608,-8388608,-8388608,260295,-8388608,-8388608,-8388608
10:47:32.546612,-8388608,-8388608,-8388608,-8388608,286578,-8388608,-8388608,-8388608
10:47:32.550614,-8388608,-8388608,-8388608,-8388608,280793,-8388608,-8388608,-8388608
10:47:32.550988,-8388608,-8388608,-8388608,-8388608,244036,-8388608,-8388608,-8388608
10:47:32.558626,-8388608,-8388608,-8388608,-8388608,231869,-8388608,-8388608,-8388608
10:47:32.561392,-8388608,-8388608,-8388608,-8388608,255747,-8388608,-8388608,-8388608
10:47:32.564861,-8388608,-8388608,-8388608,-8388608,285828,-8388608,-8388608,-8388608
10:47:32.569845,-8388608,-8388608,-8388608,-8388608,279354,-8388608,-8388608,-8388608
10:47:32.573554,-8388608,-8388608,-8388608,-8388608,246709,-8388608,-8388608,-8388608
10:47:32.576881,-8388608,-8388608,-8388608,-8388608,229092,-8388608,-8388608,-8388608
10:47:32.576881,-8388608,-8388608,-8388608,-8388608,252919,-8388608,-8388608,-8388608
10:47:32.576881,-8388608,-8388608,-8388608,-8388608,288677,-8388608,-8388608,-8388608
10:47:32.576881,-8388608,-8388608,-8388608,-8388608,279611,-8388608,-8388608,-8388608
10:47:32.593987,-8388608,-8388608,-8388608,-8388608,243606,-8388608,-8388608,-8388608
10:47:32.597927,-8388608,-8388608,-8388608,-8388608,233797,-8388608,-8388608,-8388608
10:47:32.601929,-8388608,-8388608,-8388608,-8388608,252530,-8388608,-8388608,-8388608
10:47:32.605947,-8388608,-8388608,-8388608,-8388608,275875,-8388608,-8388608,-8388608
10:47:32.609429,-8388608,-8388608,-8388608,-8388608,273384,-8388608,-8388608,-8388608
10:47:32.609429,-8388608,-8388608,-8388608,-8388608,244953,-8388608,-8388608,-8388608
10:47:32.609429,-8388608,-8388608,-8388608,-8388608,228961,-8388608,-8388608,-8388608
10:47:32.609429,-8388608,-8388608,-8388608,-8388608,255759,-8388608,-8388608,-8388608
10:47:32.625557,-8388608,-8388608,-8388608,-8388608,283391,-8388608,-8388608,-8388608
10:47:32.629645,-8388608,-8388608,-8388608,-8388608,279584,-8388608,-8388608,-8388608
10:47:32.629645,-8388608,-8388608,-8388608,-8388608,246857,-8388608,-8388608,-8388608
10:47:32.629645,-8388608,-8388608,-8388608,-8388608,230036,-8388608,-8388608,-8388608
10:47:32.641118,-8388608,-8388608,-8388608,-8388608,258033,-8388608,-8388608,-8388608
10:47:32.641118,-8388608,-8388608,-8388608,-8388608,289223,-8388608,-8388608,-8388608
10:47:32.641118,-8388608,-8388608,-8388608,-8388608,281818,-8388608,-8388608,-8388608
10:47:32.641118,-8388608,-8388608,-8388608,-8388608,251114,-8388608,-8388608,-8388608
10:47:32.657695,-8388608,-8388608,-8388608,-8388608,235436,-8388608,-8388608,-8388608
10:47:32.658057,-8388608,-8388608,-8388608,-8388608,259969,-8388608,-8388608,-8388608
10:47:32.658057,-8388608,-8388608,-8388608,-8388608,292400,-8388608,-8388608,-8388608
10:47:32.658057,-8388608,-8388608,-8388608,-8388608,287981,-8388608,-8388608,-8388608
10:47:32.658057,-8388608,-8388608,-8388608,-8388608,247421,-8388608,-8388608,-8388608
10:47:32.674500,-8388608,-8388608,-8388608,-8388608,229776,-8388608,-8388608,-8388608
10:47:32.674500,-8388608,-8388608,-8388608,-8388608,253969,-8388608,-8388608,-8388608
10:47:32.674500,-8388608,-8388608,-8388608,-8388608,292428,-8388608,-8388608,-8388608
10:47:32.690071,-8388608,-8388608,-8388608,-8388608,285311,-8388608,-8388608,-8388608
10:47:32.692076,-8388608,-8388608,-8388608,-8388608,246619,-8388608,-8388608,-8388608
10:47:32.692076,-8388608,-8388608,-8388608,-8388608,234751,-8388608,-8388608,-8388608
10:47:32.692076,-8388608,-8388608,-8388608,-8388608,253219,-8388608,-8388608,-8388608
10:47:32.692076,-8388608,-8388608,-8388608,-8388608,281509,-8388608,-8388608,-8388608
10:47:32.708395,-8388608,-8388608,-8388608,-8388608,286959,-8388608,-8388608,-8388608
10:47:32.708395,-8388608,-8388608,-8388608,-8388608,253063,-8388608,-8388608,-8388608
10:47:32.708395,-8388608,-8388608,-8388608,-8388608,231842,-8388608,-8388608,-8388608
10:47:32.708395,-8388608,-8388608,-8388608,-8388608,243271,-8388608,-8388608,-8388608
10:47:32.725593,-8388608,-8388608,-8388608,-8388608,265538,-8388608,-8388608,-8388608
10:47:32.728602,-8388608,-8388608,-8388608,-8388608,250820,-8388608,-8388608,-8388608
10:47:32.730263,-8388608,-8388608,-8388608,-8388608,205075,-8388608,-8388608,-8388608
10:47:32.730263,-8388608,-8388608,-8388608,-8388608,183565,-8388608,-8388608,-8388608
10:47:32.740928,-8388608,-8388608,-8388608,-8388608,210021,-8388608,-8388608,-8388608
10:47:32.745758,-8388608,-8388608,-8388608,-8388608,254723,-8388608,-8388608,-8388608
10:47:32.746873,-8388608,-8388608,-8388608,-8388608,267988,-8388608,-8388608,-8388608
10:47:32.746873,-8388608,-8388608,-8388608,-8388608,255126,-8388608,-8388608,-8388608
10:47:32.756643,-8388608,-8388608,-8388608,-8388608,244989,-8388608,-8388608,-8388608
10:47:32.760953,-8388608,-8388608,-8388608,-8388608,267571,-8388608,-8388608,-8388608
10:47:32.765489,-8388608,-8388608,-8388608,-8388608,297082,-8388608,-8388608,-8388608
10:47:32.770176,-8388608,-8388608,-8388608,-8388608,291341,-8388608,-8388608,-8388608
10:47:32.772964,-8388608,-8388608,-8388608,-8388608,250445,-8388608,-8388608,-8388608
10:47:32.774181,-8388608,-8388608,-8388608,-8388608,227066,-8388608,-8388608,-8388608
10:47:32.774181,-8388608,-8388608,-8388608,-8388608,250464,-8388608,-8388608,-8388608
10:47:32.774181,-8388608,-8388608,-8388608,-8388608,287628,-8388608,-8388608,-8388608
10:47:32.774181,-8388608,-8388608,-8388608,-8388608,282600,-8388608,-8388608,-8388608
10:47:32.792298,-8388608,-8388608,-8388608,-8388608,249629,-8388608,-8388608,-8388608
10:47:32.792298,-8388608,-8388608,-8388608,-8388608,227077,-8388608,-8388608,-8388608
10:47:32.792298,-8388608,-8388608,-8388608,-8388608,253283,-8388608,-8388608,-8388608
10:47:32.792298,-8388608,-8388608,-8388608,-8388608,287337,-8388608,-8388608,-8388608
10:47:32.808010,-8388608,-8388608,-8388608,-8388608,277296,-8388608,-8388608,-8388608
10:47:32.808010,-8388608,-8388608,-8388608,-8388608,242814,-8388608,-8388608,-8388608
10:47:32.808010,-8388608,-8388608,-8388608,-8388608,229699,-8388608,-8388608,-8388608
10:47:32.808010,-8388608,-8388608,-8388608,-8388608,250197,-8388608,-8388608,-8388608
10:47:32.825099,-8388608,-8388608,-8388608,-8388608,283584,-8388608,-8388608,-8388608
10:47:32.825099,-8388608,-8388608,-8388608,-8388608,276898,-8388608,-8388608,-8388608
10:47:32.825099,-8388608,-8388608,-8388608,-8388608,241699,-8388608,-8388608,-8388608
10:47:32.825099,-8388608,-8388608,-8388608,-8388608,225059,-8388608,-8388608,-8388608
10:47:32.841105,-8388608,-8388608,-8388608,-8388608,249472,-8388608,-8388608,-8388608
10:47:32.845104,-8388608,-8388608,-8388608,-8388608,281098,-8388608,-8388608,-8388608
10:47:32.847898,-8388608,-8388608,-8388608,-8388608,276951,-8388608,-8388608,-8388608
10:47:32.847898,-8388608,-8388608,-8388608,-8388608,246054,-8388608,-8388608,-8388608
10:47:32.858057,-8388608,-8388608,-8388608,-8388608,229282,-8388608,-8388608,-8388608
10:47:32.858057,-8388608,-8388608,-8388608,-8388608,245532,-8388608,-8388608,-8388608
10:47:32.858057,-8388608,-8388608,-8388608,-8388608,276336,-8388608,-8388608,-8388608
10:47:32.858057,-8388608,-8388608,-8388608,-8388608,272519,-8388608,-8388608,-8388608
10:47:32.873364,-8388608,-8388608,-8388608,-8388608,240271,-8388608,-8388608,-8388608
10:47:32.874739,-8388608,-8388608,-8388608,-8388608,219477,-8388608,-8388608,-8388608
10:47:32.874739,-8388608,-8388608,-8388608,-8388608,246179,-8388608,-8388608,-8388608
10:47:32.874739,-8388608,-8388608,-8388608,-8388608,273343,-8388608,-8388608,-8388608
10:47:32.889943,-8388608,-8388608,-8388608,-8388608,273419,-8388608,-8388608,-8388608
10:47:32.892394,-8388608,-8388608,-8388608,-8388608,243420,-8388608,-8388608,-8388608
10:47:32.892394,-8388608,-8388608,-8388608,-8388608,221876,-8388608,-8388608,-8388608
10:47:32.892394,-8388608,-8388608,-8388608,-8388608,242506,-8388608,-8388608,-8388608
10:47:32.892394,-8388608,-8388608,-8388608,-8388608,271783,-8388608,-8388608,-8388608
10:47:32.908328,-8388608,-8388608,-8388608,-8388608,263793,-8388608,-8388608,-8388608
10:47:32.908328,-8388608,-8388608,-8388608,-8388608,232946,-8388608,-8388608,-8388608
10:47:32.908328,-8388608,-8388608,-8388608,-8388608,216790,-8388608,-8388608,-8388608
10:47:32.908328,-8388608,-8388608,-8388608,-8388608,237768,-8388608,-8388608,-8388608
10:47:32.924755,-8388608,-8388608,-8388608,-8388608,271294,-8388608,-8388608,-8388608
10:47:32.924755,-8388608,-8388608,-8388608,-8388608,266176,-8388608,-8388608,-8388608
10:47:32.924755,-8388608,-8388608,-8388608,-8388608,236139,-8388608,-8388608,-8388608
10:47:32.924755,-8388608,-8388608,-8388608,-8388608,214412,-8388608,-8388608,-8388608
10:47:32.941055,-8388608,-8388608,-8388608,-8388608,233646,-8388608,-8388608,-8388608
10:47:32.944057,-8388608,-8388608,-8388608,-8388608,271531,-8388608,-8388608,-8388608
10:47:32.946717,-8388608,-8388608,-8388608,-8388608,263443,-8388608,-8388608,-8388608
10:47:32.946717,-8388608,-8388608,-8388608,-8388608,225011,-8388608,-8388608,-8388608
10:47:32.956523,-8388608,-8388608,-8388608,-8388608,214278,-8388608,-8388608,-8388608
10:47:32.960864,-8388608,-8388608,-8388608,-8388608,237653,-8388608,-8388608,-8388608
10:47:32.962785,-8388608,-8388608,-8388608,-8388608,268836,-8388608,-8388608,-8388608
10:47:32.962785,-8388608,-8388608,-8388608,-8388608,263876,-8388608,-8388608,-8388608
10:47:32.962785,-8388608,-8388608,-8388608,-8388608,231449,-8388608,-8388608,-8388608
10:47:32.976292,-8388608,-8388608,-8388608,-8388608,212109,-8388608,-8388608,-8388608
10:47:32.981310,-8388608,-8388608,-8388608,-8388608,232090,-8388608,-8388608,-8388608
10:47:32.985456,-8388608,-8388608,-8388608,-8388608,270998,-8388608,-8388608,-8388608
10:47:32.989599,-8388608,-8388608,-8388608,-8388608,271540,-8388608,-8388608,-8388608
10:47:32.992298,-8388608,-8388608,-8388608,-8388608,238634,-8388608,-8388608,-8388608
10:47:32.992298,-8388608,-8388608,-8388608,-8388608,224911,-8388608,-8388608,-8388608
10:47:32.992298,-8388608,-8388608,-8388608,-8388608,246901,-8388608,-8388608,-8388608
10:47:33.006309,-8388608,-8388608,-8388608,-8388608,279166,-8388608,-8388608,-8388608
10:47:33.007836,-8388608,-8388608,-8388608,-8388608,276018,-8388608,-8388608,-8388608
10:47:33.007836,-8388608,-8388608,-8388608,-8388608,245974,-8388608,-8388608,-8388608
10:47:33.007836,-8388608,-8388608,-8388608,-8388608,226521,-8388608,-8388608,-8388608
10:47:33.007836,-8388608,-8388608,-8388608,-8388608,252320,-8388608,-8388608,-8388608
10:47:33.024882,-8388608,-8388608,-8388608,-8388608,289641,-8388608,-8388608,-8388608
10:47:33.024882,-8388608,-8388608,-8388608,-8388608,285258,-8388608,-8388608,-8388608
10:47:33.024882,-8388608,-8388608,-8388608,-8388608,250439,-8388608,-8388608,-8388608
10:47:33.024882,-8388608,-8388608,-8388608,-8388608,231516,-8388608,-8388608,-8388608
10:47:33.041530,-8388608,-8388608,-8388608,-8388608,253975,-8388608,-8388608,-8388608
10:47:33.041530,-8388608,-8388608,-8388608,-8388608,289027,-8388608,-8388608,-8388608
10:47:33.041530,-8388608,-8388608,-8388608,-8388608,283056,-8388608,-8388608,-8388608
10:47:33.041530,-8388608,-8388608,-8388608,-8388608,247775,-8388608,-8388608,-8388608
10:47:33.057453,-8388608,-8388608,-8388608,-8388608,227058,-8388608,-8388608,-8388608
10:47:33.060450,-8388608,-8388608,-8388608,-8388608,249737,-8388608,-8388608,-8388608
10:47:33.062555,-8388608,-8388608,-8388608,-8388608,287437,-8388608,-8388608,-8388608
10:47:33.062555,-8388608,-8388608,-8388608,-8388608,284421,-8388608,-8388608,-8388608
10:47:33.072964,-8388608,-8388608,-8388608,-8388608,251977,-8388608,-8388608,-8388608
10:47:33.073838,-8388608,-8388608,-8388608,-8388608,236964,-8388608,-8388608,-8388608
10:47:33.073838,-8388608,-8388608,-8388608,-8388608,260358,-8388608,-8388608,-8388608
10:47:33.073838,-8388608,-8388608,-8388608,-8388608,288566,-8388608,-8388608,-8388608
10:47:33.073838,-8388608,-8388608,-8388608,-8388608,286651,-8388608,-8388608,-8388608
10:47:33.092564,-8388608,-8388608,-8388608,-8388608,247065,-8388608,-8388608,-8388608
10:47:33.092564,-8388608,-8388608,-8388608,-8388608,228333,-8388608,-8388608,-8388608
10:47:33.092564,-8388608,-8388608,-8388608,-8388608,255774,-8388608,-8388608,-8388608
10:47:33.092564,-8388608,-8388608,-8388608,-8388608,289355,-8388608,-8388608,-8388608
10:47:33.107870,-8388608,-8388608,-8388608,-8388608,286143,-8388608,-8388608,-8388608
10:47:33.107870,-8388608,-8388608,-8388608,-8388608,253754,-8388608,-8388608,-8388608
10:47:33.107870,-8388608,-8388608,-8388608,-8388608,232946,-8388608,-8388608,-8388608
10:47:33.107870,-8388608,-8388608,-8388608,-8388608,254292,-8388608,-8388608,-8388608
10:47:33.124644,-8388608,-8388608,-8388608,-8388608,286343,-8388608,-8388608,-8388608
10:47:33.124644,-8388608,-8388608,-8388608,-8388608,287011,-8388608,-8388608,-8388608
10:47:33.124644,-8388608,-8388608,-8388608,-8388608,249869,-8388608,-8388608,-8388608
10:47:33.124644,-8388608,-8388608,-8388608,-8388608,229232,-8388608,-8388608,-8388608
10:47:33.142528,-8388608,-8388608,-8388608,-8388608,254538,-8388608,-8388608,-8388608
10:47:33.142528,-8388608,-8388608,-8388608,-8388608,291388,-8388608,-8388608,-8388608
10:47:33.142528,-8388608,-8388608,-8388608,-8388608,290499,-8388608,-8388608,-8388608
10:47:33.142528,-8388608,-8388608,-8388608,-8388608,252239,-8388608,-8388608,-8388608
10:47:33.157409,-8388608,-8388608,-8388608,-8388608,226966,-8388608,-8388608,-8388608
10:47:33.160403,-8388608,-8388608,-8388608,-8388608,255234,-8388608,-8388608,-8388608
10:47:33.162849,-8388608,-8388608,-8388608,-8388608,291084,-8388608,-8388608,-8388608
10:47:33.166807,-8388608,-8388608,-8388608,-8388608,287866,-8388608,-8388608,-8388608
10:47:33.166807,-8388608,-8388608,-8388608,-8388608,253423,-8388608,-8388608,-8388608
10:47:33.175524,-8388608,-8388608,-8388608,-8388608,230529,-8388608,-8388608,-8388608
10:47:33.181559,-8388608,-8388608,-8388608,-8388608,252701,-8388608,-8388608,-8388608
10:47:33.185269,-8388608,-8388608,-8388608,-8388608,282554,-8388608,-8388608,-8388608
10:47:33.188622,-8388608,-8388608,-8388608,-8388608,284134,-8388608,-8388608,-8388608
10:47:33.192557,-8388608,-8388608,-8388608,-8388608,254558,-8388608,-8388608,-8388608
10:47:33.192557,-8388608,-8388608,-8388608,-8388608,234344,-8388608,-8388608,-8388608
10:47:33.192557,-8388608,-8388608,-8388608,-8388608,254100,-8388608,-8388608,-8388608
10:47:33.206218,-8388608,-8388608,-8388608,-8388608,286598,-8388608,-8388608,-8388608
10:47:33.207132,-8388608,-8388608,-8388608,-8388608,284180,-8388608,-8388608,-8388608
10:47:33.207132,-8388608,-8388608,-8388608,-8388608,252298,-8388608,-8388608,-8388608
10:47:33.207132,-8388608,-8388608,-8388608,-8388608,232845,-8388608,-8388608,-8388608
10:47:33.222140,-8388608,-8388608,-8388608,-8388608,254434,-8388608,-8388608,-8388608
10:47:33.224122,-8388608,-8388608,-8388608,-8388608,287816,-8388608,-8388608,-8388608
10:47:33.224122,-8388608,-8388608,-8388608,-8388608,285805,-8388608,-8388608,-8388608
10:47:33.224122,-8388608,-8388608,-8388608,-8388608,249724,-8388608,-8388608,-8388608
10:47:33.224122,-8388608,-8388608,-8388608,-8388608,234207,-8388608,-8388608,-8388608
10:47:33.240746,-8388608,-8388608,-8388608,-8388608,257974,-8388608,-8388608,-8388608
10:47:33.241304,-8388608,-8388608,-8388608,-8388608,292271,-8388608,-8388608,-8388608
10:47:33.241304,-8388608,-8388608,-8388608,-8388608,288740,-8388608,-8388608,-8388608
10:47:33.241304,-8388608,-8388608,-8388608,-8388608,252043,-8388608,-8388608,-8388608
10:47:33.256259,-8388608,-8388608,-8388608,-8388608,231138,-8388608,-8388608,-8388608
10:47:33.257637,-8388608,-8388608,-8388608,-8388608,253461,-8388608,-8388608,-8388608
10:47:33.257637,-8388608,-8388608,-8388608,-8388608,288651,-8388608,-8388608,-8388608
10:47:33.257637,-8388608,-8388608,-8388608,-8388608,286431,-8388608,-8388608,-8388608
10:47:33.273903,-8388608,-8388608,-8388608,-8388608,255046,-8388608,-8388608,-8388608
10:47:33.277907,-8388608,-8388608,-8388608,-8388608,231894,-8388608,-8388608,-8388608
10:47:33.280484,-8388608,-8388608,-8388608,-8388608,251781,-8388608,-8388608,-8388608
10:47:33.280484,-8388608,-8388608,-8388608,-8388608,288600,-8388608,-8388608,-8388608
10:47:33.289724,-8388608,-8388608,-8388608,-8388608,287176,-8388608,-8388608,-8388608
10:47:33.292600,-8388608,-8388608,-8388608,-8388608,250962,-8388608,-8388608,-8388608
10:47:33.292600,-8388608,-8388608,-8388608,-8388608,236319,-8388608,-8388608,-8388608
10:47:33.292600,-8388608,-8388608,-8388608,-8388608,255994,-8388608,-8388608,-8388608
10:47:33.292600,-8388608,-8388608,-8388608,-8388608,287664,-8388608,-8388608,-8388608
10:47:33.307967,-8388608,-8388608,-8388608,-8388608,288549,-8388608,-8388608,-8388608
10:47:33.307967,-8388608,-8388608,-8388608,-8388608,257328,-8388608,-8388608,-8388608
10:47:33.307967,-8388608,-8388608,-8388608,-8388608,241118,-8388608,-8388608,-8388608
10:47:33.307967,-8388608,-8388608,-8388608,-8388608,253473,-8388608,-8388608,-8388608
10:47:33.323737,-8388608,-8388608,-8388608,-8388608,283159,-8388608,-8388608,-8388608
10:47:33.324243,-8388608,-8388608,-8388608,-8388608,285464,-8388608,-8388608,-8388608
10:47:33.324243,-8388608,-8388608,-8388608,-8388608,257667,-8388608,-8388608,-8388608
10:47:33.324243,-8388608,-8388608,-8388608,-8388608,240195,-8388608,-8388608,-8388608
10:47:33.340601,-8388608,-8388608,-8388608,-8388608,260038,-8388608,-8388608,-8388608
10:47:33.341128,-8388608,-8388608,-8388608,-8388608,289724,-8388608,-8388608,-8388608
10:47:33.341128,-8388608,-8388608,-8388608,-8388608,288129,-8388608,-8388608,-8388608
10:47:33.341128,-8388608,-8388608,-8388608,-8388608,257041,-8388608,-8388608,-8388608
10:47:33.357377,-8388608,-8388608,-8388608,-8388608,236139,-8388608,-8388608,-8388608
10:47:33.357881,-8388608,-8388608,-8388608,-8388608,258406,-8388608,-8388608,-8388608
10:47:33.357881,-8388608,-8388608,-8388608,-8388608,288579,-8388608,-8388608,-8388608
10:47:33.357881,-8388608,-8388608,-8388608,-8388608,289399,-8388608,-8388608,-8388608
10:47:33.374899,-8388608,-8388608,-8388608,-8388608,256284,-8388608,-8388608,-8388608
10:47:33.377939,-8388608,-8388608,-8388608,-8388608,236243,-8388608,-8388608,-8388608
10:47:33.380049,-8388608,-8388608,-8388608,-8388608,256818,-8388608,-8388608,-8388608
10:47:33.383181,-8388608,-8388608,-8388608,-8388608,288620,-8388608,-8388608,-8388608
10:47:33.385069,-8388608,-8388608,-8388608,-8388608,289618,-8388608,-8388608,-8388608
10:47:33.391416,-8388608,-8388608,-8388608,-8388608,259196,-8388608,-8388608,-8388608
10:47:33.396999,-8388608,-8388608,-8388608,-8388608,240514,-8388608,-8388608,-8388608
10:47:33.401297,-8388608,-8388608,-8388608,-8388608,255879,-8388608,-8388608,-8388608
10:47:33.403959,-8388608,-8388608,-8388608,-8388608,291084,-8388608,-8388608,-8388608
10:47:33.407381,-8388608,-8388608,-8388608,-8388608,290885,-8388608,-8388608,-8388608
10:47:33.407381,-8388608,-8388608,-8388608,-8388608,259940,-8388608,-8388608,-8388608
10:47:33.407381,-8388608,-8388608,-8388608,-8388608,238943,-8388608,-8388608,-8388608
10:47:33.407381,-8388608,-8388608,-8388608,-8388608,255601,-8388608,-8388608,-8388608
10:47:33.424285,-8388608,-8388608,-8388608,-8388608,289659,-8388608,-8388608,-8388608
10:47:33.424285,-8388608,-8388608,-8388608,-8388608,294791,-8388608,-8388608,-8388608
10:47:33.424285,-8388608,-8388608,-8388608,-8388608,262898,-8388608,-8388608,-8388608
10:47:33.424285,-8388608,-8388608,-8388608,-8388608,238647,-8388608,-8388608,-8388608
10:47:33.441027,-8388608,-8388608,-8388608,-8388608,260276,-8388608,-8388608,-8388608
10:47:33.441027,-8388608,-8388608,-8388608,-8388608,297478,-8388608,-8388608,-8388608
10:47:33.441027,-8388608,-8388608,-8388608,-8388608,288024,-8388608,-8388608,-8388608
10:47:33.441027,-8388608,-8388608,-8388608,-8388608,260709,-8388608,-8388608,-8388608
10:47:33.457343,-8388608,-8388608,-8388608,-8388608,244428,-8388608,-8388608,-8388608
10:47:33.457343,-8388608,-8388608,-8388608,-8388608,260611,-8388608,-8388608,-8388608
10:47:33.457343,-8388608,-8388608,-8388608,-8388608,293989,-8388608,-8388608,-8388608
10:47:33.457343,-8388608,-8388608,-8388608,-8388608,291868,-8388608,-8388608,-8388608
10:47:33.457343,-8388608,-8388608,-8388608,-8388608,264962,-8388608,-8388608,-8388608
10:47:33.473106,-8388608,-8388608,-8388608,-8388608,246478,-8388608,-8388608,-8388608
10:47:33.473106,-8388608,-8388608,-8388608,-8388608,264541,-8388608,-8388608,-8388608
10:47:33.473106,-8388608,-8388608,-8388608,-8388608,292853,-8388608,-8388608,-8388608
10:47:33.473106,-8388608,-8388608,-8388608,-8388608,294753,-8388608,-8388608,-8388608
10:47:33.491510,-8388608,-8388608,-8388608,-8388608,265587,-8388608,-8388608,-8388608
10:47:33.496256,-8388608,-8388608,-8388608,-8388608,246302,-8388608,-8388608,-8388608
10:47:33.496256,-8388608,-8388608,-8388608,-8388608,267482,-8388608,-8388608,-8388608
10:47:33.496256,-8388608,-8388608,-8388608,-8388608,302181,-8388608,-8388608,-8388608
10:47:33.506893,-8388608,-8388608,-8388608,-8388608,298006,-8388608,-8388608,-8388608
10:47:33.506893,-8388608,-8388608,-8388608,-8388608,260064,-8388608,-8388608,-8388608
10:47:33.506893,-8388608,-8388608,-8388608,-8388608,241079,-8388608,-8388608,-8388608
10:47:33.506893,-8388608,-8388608,-8388608,-8388608,266388,-8388608,-8388608,-8388608
10:47:33.524586,-8388608,-8388608,-8388608,-8388608,298892,-8388608,-8388608,-8388608
10:47:33.524586,-8388608,-8388608,-8388608,-8388608,300246,-8388608,-8388608,-8388608
10:47:33.524586,-8388608,-8388608,-8388608,-8388608,270151,-8388608,-8388608,-8388608
10:47:33.539501,-8388608,-8388608,-8388608,-8388608,242716,-8388608,-8388608,-8388608
10:47:33.540965,-8388608,-8388608,-8388608,-8388608,261839,-8388608,-8388608,-8388608
10:47:33.540965,-8388608,-8388608,-8388608,-8388608,297699,-8388608,-8388608,-8388608
10:47:33.540965,-8388608,-8388608,-8388608,-8388608,300452,-8388608,-8388608,-8388608
10:47:33.540965,-8388608,-8388608,-8388608,-8388608,269731,-8388608,-8388608,-8388608
10:47:33.555872,-8388608,-8388608,-8388608,-8388608,244223,-8388608,-8388608,-8388608
10:47:33.557468,-8388608,-8388608,-8388608,-8388608,259648,-8388608,-8388608,-8388608
10:47:33.557468,-8388608,-8388608,-8388608,-8388608,296383,-8388608,-8388608,-8388608
10:47:33.557468,-8388608,-8388608,-8388608,-8388608,302953,-8388608,-8388608,-8388608
10:47:33.557468,-8388608,-8388608,-8388608,-8388608,269612,-8388608,-8388608,-8388608
10:47:33.574014,-8388608,-8388608,-8388608,-8388608,248813,-8388608,-8388608,-8388608
10:47:33.574014,-8388608,-8388608,-8388608,-8388608,259379,-8388608,-8388608,-8388608
10:47:33.574014,-8388608,-8388608,-8388608,-8388608,291606,-8388608,-8388608,-8388608
10:47:33.574014,-8388608,-8388608,-8388608,-8388608,297162,-8388608,-8388608,-8388608
10:47:33.591386,-8388608,-8388608,-8388608,-8388608,266209,-8388608,-8388608,-8388608
10:47:33.594076,-8388608,-8388608,-8388608,-8388608,245900,-8388608,-8388608,-8388608
10:47:33.599645,-8388608,-8388608,-8388608,-8388608,260301,-8388608,-8388608,-8388608
10:47:33.599645,-8388608,-8388608,-8388608,-8388608,292513,-8388608,-8388608,-8388608
10:47:33.608530,-8388608,-8388608,-8388608,-8388608,294016,-8388608,-8388608,-8388608
10:47:33.614015,-8388608,-8388608,-8388608,-8388608,264845,-8388608,-8388608,-8388608
10:47:33.618249,-8388608,-8388608,-8388608,-8388608,249089,-8388608,-8388608,-8388608
10:47:33.622534,-8388608,-8388608,-8388608,-8388608,264731,-8388608,-8388608,-8388608
10:47:33.623298,-8388608,-8388608,-8388608,-8388608,299778,-8388608,-8388608,-8388608
10:47:33.623298,-8388608,-8388608,-8388608,-8388608,305464,-8388608,-8388608,-8388608
10:47:33.623298,-8388608,-8388608,-8388608,-8388608,273883,-8388608,-8388608,-8388608
10:47:33.623298,-8388608,-8388608,-8388608,-8388608,250677,-8388608,-8388608,-8388608
10:47:33.640302,-8388608,-8388608,-8388608,-8388608,267052,-8388608,-8388608,-8388608
10:47:33.640630,-8388608,-8388608,-8388608,-8388608,303706,-8388608,-8388608,-8388608
10:47:33.640630,-8388608,-8388608,-8388608,-8388608,305911,-8388608,-8388608,-8388608
10:47:33.640630,-8388608,-8388608,-8388608,-8388608,275061,-8388608,-8388608,-8388608
10:47:33.655800,-8388608,-8388608,-8388608,-8388608,251904,-8388608,-8388608,-8388608
10:47:33.657089,-8388608,-8388608,-8388608,-8388608,268484,-8388608,-8388608,-8388608
10:47:33.657089,-8388608,-8388608,-8388608,-8388608,299650,-8388608,-8388608,-8388608
10:47:33.657089,-8388608,-8388608,-8388608,-8388608,303104,-8388608,-8388608,-8388608
10:47:33.672507,-8388608,-8388608,-8388608,-8388608,269776,-8388608,-8388608,-8388608
10:47:33.674293,-8388608,-8388608,-8388608,-8388608,246034,-8388608,-8388608,-8388608
10:47:33.674293,-8388608,-8388608,-8388608,-8388608,267901,-8388608,-8388608,-8388608
10:47:33.674293,-8388608,-8388608,-8388608,-8388608,306516,-8388608,-8388608,-8388608
10:47:33.689365,-8388608,-8388608,-8388608,-8388608,308136,-8388608,-8388608,-8388608
10:47:33.692365,-8388608,-8388608,-8388608,-8388608,273328,-8388608,-8388608,-8388608
10:47:33.694485,-8388608,-8388608,-8388608,-8388608,254666,-8388608,-8388608,-8388608
10:47:33.694485,-8388608,-8388608,-8388608,-8388608,272498,-8388608,-8388608,-8388608
10:47:33.694485,-8388608,-8388608,-8388608,-8388608,301604,-8388608,-8388608,-8388608
10:47:33.706851,-8388608,-8388608,-8388608,-8388608,300789,-8388608,-8388608,-8388608
10:47:33.706851,-8388608,-8388608,-8388608,-8388608,261460,-8388608,-8388608,-8388608
10:47:33.706851,-8388608,-8388608,-8388608,-8388608,230661,-8388608,-8388608,-8388608
10:47:33.706851,-8388608,-8388608,-8388608,-8388608,237959,-8388608,-8388608,-8388608
10:47:33.723896,-8388608,-8388608,-8388608,-8388608,260919,-8388608,-8388608,-8388608
10:47:33.723896,-8388608,-8388608,-8388608,-8388608,254096,-8388608,-8388608,-8388608
10:47:33.723896,-8388608,-8388608,-8388608,-8388608,220171,-8388608,-8388608,-8388608
10:47:33.723896,-8388608,-8388608,-8388608,-8388608,216808,-8388608,-8388608,-8388608
10:47:33.739270,-8388608,-8388608,-8388608,-8388608,258830,-8388608,-8388608,-8388608
10:47:33.740933,-8388608,-8388608,-8388608,-8388608,315313,-8388608,-8388608,-8388608
10:47:33.740933,-8388608,-8388608,-8388608,-8388608,327678,-8388608,-8388608,-8388608
10:47:33.740933,-8388608,-8388608,-8388608,-8388608,292964,-8388608,-8388608,-8388608
10:47:33.755867,-8388608,-8388608,-8388608,-8388608,262277,-8388608,-8388608,-8388608
10:47:33.757486,-8388608,-8388608,-8388608,-8388608,274513,-8388608,-8388608,-8388608
10:47:33.757486,-8388608,-8388608,-8388608,-8388608,303504,-8388608,-8388608,-8388608
10:47:33.757486,-8388608,-8388608,-8388608,-8388608,307636,-8388608,-8388608,-8388608
10:47:33.772547,-8388608,-8388608,-8388608,-8388608,278194,-8388608,-8388608,-8388608
10:47:33.773989,-8388608,-8388608,-8388608,-8388608,258019,-8388608,-8388608,-8388608
10:47:33.773989,-8388608,-8388608,-8388608,-8388608,271502,-8388608,-8388608,-8388608
10:47:33.773989,-8388608,-8388608,-8388608,-8388608,303299,-8388608,-8388608,-8388608
10:47:33.773989,-8388608,-8388608,-8388608,-8388608,305623,-8388608,-8388608,-8388608
10:47:33.790632,-8388608,-8388608,-8388608,-8388608,276351,-8388608,-8388608,-8388608
10:47:33.793642,-8388608,-8388608,-8388608,-8388608,255763,-8388608,-8388608,-8388608
10:47:33.793642,-8388608,-8388608,-8388608,-8388608,269089,-8388608,-8388608,-8388608
10:47:33.793642,-8388608,-8388608,-8388608,-8388608,304826,-8388608,-8388608,-8388608
10:47:33.808078,-8388608,-8388608,-8388608,-8388608,307094,-8388608,-8388608,-8388608
10:47:33.811996,-8388608,-8388608,-8388608,-8388608,280459,-8388608,-8388608,-8388608
10:47:33.815217,-8388608,-8388608,-8388608,-8388608,251476,-8388608,-8388608,-8388608
10:47:33.817893,-8388608,-8388608,-8388608,-8388608,268296,-8388608,-8388608,-8388608
10:47:33.825239,-8388608,-8388608,-8388608,-8388608,308552,-8388608,-8388608,-8388608
10:47:33.829646,-8388608,-8388608,-8388608,-8388608,315236,-8388608,-8388608,-8388608
10:47:33.831870,-8388608,-8388608,-8388608,-8388608,278785,-8388608,-8388608,-8388608
10:47:33.836586,-8388608,-8388608,-8388608,-8388608,252238,-8388608,-8388608,-8388608
10:47:33.840121,-8388608,-8388608,-8388608,-8388608,272572,-8388608,-8388608,-8388608
10:47:33.840121,-8388608,-8388608,-8388608,-8388608,309546,-8388608,-8388608,-8388608
10:47:33.840121,-8388608,-8388608,-8388608,-8388608,306853,-8388608,-8388608,-8388608
10:47:33.840121,-8388608,-8388608,-8388608,-8388608,276440,-8388608,-8388608,-8388608
10:47:33.857118,-8388608,-8388608,-8388608,-8388608,250855,-8388608,-8388608,-8388608
10:47:33.857118,-8388608,-8388608,-8388608,-8388608,270726,-8388608,-8388608,-8388608
10:47:33.857118,-8388608,-8388608,-8388608,-8388608,305007,-8388608,-8388608,-8388608
10:47:33.857118,-8388608,-8388608,-8388608,-8388608,306030,-8388608,-8388608,-8388608
10:47:33.857118,-8388608,-8388608,-8388608,-8388608,273358,-8388608,-8388608,-8388608
10:47:33.873791,-8388608,-8388608,-8388608,-8388608,250401,-8388608,-8388608,-8388608
10:47:33.873791,-8388608,-8388608,-8388608,-8388608,269251,-8388608,-8388608,-8388608
10:47:33.873791,-8388608,-8388608,-8388608,-8388608,308494,-8388608,-8388608,-8388608
10:47:33.873791,-8388608,-8388608,-8388608,-8388608,310056,-8388608,-8388608,-8388608
10:47:33.890716,-8388608,-8388608,-8388608,-8388608,275291,-8388608,-8388608,-8388608
10:47:33.893778,-8388608,-8388608,-8388608,-8388608,253143,-8388608,-8388608,-8388608
10:47:33.893778,-8388608,-8388608,-8388608,-8388608,269414,-8388608,-8388608,-8388608
10:47:33.893778,-8388608,-8388608,-8388608,-8388608,300679,-8388608,-8388608,-8388608
10:47:33.907767,-8388608,-8388608,-8388608,-8388608,307351,-8388608,-8388608,-8388608
10:47:33.910763,-8388608,-8388608,-8388608,-8388608,274688,-8388608,-8388608,-8388608
10:47:33.914085,-8388608,-8388608,-8388608,-8388608,250358,-8388608,-8388608,-8388608
10:47:33.914085,-8388608,-8388608,-8388608,-8388608,267273,-8388608,-8388608,-8388608
10:47:33.922869,-8388608,-8388608,-8388608,-8388608,302046,-8388608,-8388608,-8388608
10:47:33.922869,-8388608,-8388608,-8388608,-8388608,305428,-8388608,-8388608,-8388608
10:47:33.922869,-8388608,-8388608,-8388608,-8388608,278176,-8388608,-8388608,-8388608
10:47:33.937915,-8388608,-8388608,-8388608,-8388608,253369,-8388608,-8388608,-8388608
10:47:33.940300,-8388608,-8388608,-8388608,-8388608,264121,-8388608,-8388608,-8388608
10:47:33.940300,-8388608,-8388608,-8388608,-8388608,296307,-8388608,-8388608,-8388608
10:47:33.940300,-8388608,-8388608,-8388608,-8388608,304833,-8388608,-8388608,-8388608
10:47:33.940300,-8388608,-8388608,-8388608,-8388608,273690,-8388608,-8388608,-8388608
10:47:33.955756,-8388608,-8388608,-8388608,-8388608,247118,-8388608,-8388608,-8388608
10:47:33.957302,-8388608,-8388608,-8388608,-8388608,271064,-8388608,-8388608,-8388608
10:47:33.957302,-8388608,-8388608,-8388608,-8388608,302413,-8388608,-8388608,-8388608
10:47:33.957302,-8388608,-8388608,-8388608,-8388608,303657,-8388608,-8388608,-8388608
10:47:33.957302,-8388608,-8388608,-8388608,-8388608,285017,-8388608,-8388608,-8388608
10:47:33.973866,-8388608,-8388608,-8388608,-8388608,264074,-8388608,-8388608,-8388608
10:47:33.973866,-8388608,-8388608,-8388608,-8388608,278444,-8388608,-8388608,-8388608
10:47:33.973866,-8388608,-8388608,-8388608,-8388608,313130,-8388608,-8388608,-8388608
10:47:33.973866,-8388608,-8388608,-8388608,-8388608,321414,-8388608,-8388608,-8388608
10:47:33.990598,-8388608,-8388608,-8388608,-8388608,288546,-8388608,-8388608,-8388608
10:47:33.994220,-8388608,-8388608,-8388608,-8388608,269849,-8388608,-8388608,-8388608
10:47:33.994220,-8388608,-8388608,-8388608,-8388608,285899,-8388608,-8388608,-8388608
10:47:33.994220,-8388608,-8388608,-8388608,-8388608,319154,-8388608,-8388608,-8388608
10:47:34.007170,-8388608,-8388608,-8388608,-8388608,324271,-8388608,-8388608,-8388608
10:47:34.012501,-8388608,-8388608,-8388608,-8388608,294919,-8388608,-8388608,-8388608
10:47:34.013590,-8388608,-8388608,-8388608,-8388608,273005,-8388608,-8388608,-8388608
10:47:34.013590,-8388608,-8388608,-8388608,-8388608,288043,-8388608,-8388608,-8388608
10:47:34.025544,-8388608,-8388608,-8388608,-8388608,325551,-8388608,-8388608,-8388608
10:47:34.028500,-8388608,-8388608,-8388608,-8388608,331839,-8388608,-8388608,-8388608
10:47:34.032224,-8388608,-8388608,-8388608,-8388608,303591,-8388608,-8388608,-8388608
10:47:34.034799,-8388608,-8388608,-8388608,-8388608,278249,-8388608,-8388608,-8388608
10:47:34.038498,-8388608,-8388608,-8388608,-8388608,293309,-8388608,-8388608,-8388608
10:47:34.039767,-8388608,-8388608,-8388608,-8388608,325720,-8388608,-8388608,-8388608
10:47:34.039767,-8388608,-8388608,-8388608,-8388608,328356,-8388608,-8388608,-8388608
10:47:34.039767,-8388608,-8388608,-8388608,-8388608,295265,-8388608,-8388608,-8388608
10:47:34.039767,-8388608,-8388608,-8388608,-8388608,278136,-8388608,-8388608,-8388608
10:47:34.056703,-8388608,-8388608,-8388608,-8388608,298375,-8388608,-8388608,-8388608
10:47:34.056703,-8388608,-8388608,-8388608,-8388608,329881,-8388608,-8388608,-8388608
10:47:34.056703,-8388608,-8388608,-8388608,-8388608,337718,-8388608,-8388608,-8388608
10:47:34.072419,-8388608,-8388608,-8388608,-8388608,302303,-8388608,-8388608,-8388608
10:47:34.073782,-8388608,-8388608,-8388608,-8388608,280751,-8388608,-8388608,-8388608
10:47:34.073782,-8388608,-8388608,-8388608,-8388608,294765,-8388608,-8388608,-8388608
10:47:34.073782,-8388608,-8388608,-8388608,-8388608,332022,-8388608,-8388608,-8388608
10:47:34.089874,-8388608,-8388608,-8388608,-8388608,335568,-8388608,-8388608,-8388608
10:47:34.090324,-8388608,-8388608,-8388608,-8388608,306053,-8388608,-8388608,-8388608
10:47:34.094334,-8388608,-8388608,-8388608,-8388608,282157,-8388608,-8388608,-8388608
10:47:34.094334,-8388608,-8388608,-8388608,-8388608,295728,-8388608,-8388608,-8388608
10:47:34.094334,-8388608,-8388608,-8388608,-8388608,329128,-8388608,-8388608,-8388608
10:47:34.107318,-8388608,-8388608,-8388608,-8388608,336446,-8388608,-8388608,-8388608
10:47:34.107318,-8388608,-8388608,-8388608,-8388608,302244,-8388608,-8388608,-8388608
10:47:34.107318,-8388608,-8388608,-8388608,-8388608,281516,-8388608,-8388608,-8388608
10:47:34.107318,-8388608,-8388608,-8388608,-8388608,300816,-8388608,-8388608,-8388608
10:47:34.122334,-8388608,-8388608,-8388608,-8388608,334095,-8388608,-8388608,-8388608
10:47:34.126453,-8388608,-8388608,-8388608,-8388608,337840,-8388608,-8388608,-8388608
10:47:34.129146,-8388608,-8388608,-8388608,-8388608,310586,-8388608,-8388608,-8388608
10:47:34.129146,-8388608,-8388608,-8388608,-8388608,279610,-8388608,-8388608,-8388608
10:47:34.129146,-8388608,-8388608,-8388608,-8388608,295472,-8388608,-8388608,-8388608
10:47:34.139732,-8388608,-8388608,-8388608,-8388608,331605,-8388608,-8388608,-8388608
10:47:34.139732,-8388608,-8388608,-8388608,-8388608,335704,-8388608,-8388608,-8388608
10:47:34.139732,-8388608,-8388608,-8388608,-8388608,306734,-8388608,-8388608,-8388608
10:47:34.155427,-8388608,-8388608,-8388608,-8388608,279077,-8388608,-8388608,-8388608
10:47:34.156644,-8388608,-8388608,-8388608,-8388608,301034,-8388608,-8388608,-8388608
10:47:34.156644,-8388608,-8388608,-8388608,-8388608,337513,-8388608,-8388608,-8388608
10:47:34.156644,-8388608,-8388608,-8388608,-8388608,340187,-8388608,-8388608,-8388608
10:47:34.172258,-8388608,-8388608,-8388608,-8388608,311468,-8388608,-8388608,-8388608
10:47:34.173903,-8388608,-8388608,-8388608,-8388608,287351,-8388608,-8388608,-8388608
10:47:34.173903,-8388608,-8388608,-8388608,-8388608,303317,-8388608,-8388608,-8388608
10:47:34.173903,-8388608,-8388608,-8388608,-8388608,335444,-8388608,-8388608,-8388608
10:47:34.190285,-8388608,-8388608,-8388608,-8388608,337476,-8388608,-8388608,-8388608
10:47:34.194335,-8388608,-8388608,-8388608,-8388608,313593,-8388608,-8388608,-8388608
10:47:34.194335,-8388608,-8388608,-8388608,-8388608,288473,-8388608,-8388608,-8388608
10:47:34.194335,-8388608,-8388608,-8388608,-8388608,304611,-8388608,-8388608,-8388608
10:47:34.194335,-8388608,-8388608,-8388608,-8388608,334674,-8388608,-8388608,-8388608
10:47:34.206506,-8388608,-8388608,-8388608,-8388608,340313,-8388608,-8388608,-8388608
10:47:34.207097,-8388608,-8388608,-8388608,-8388608,307931,-8388608,-8388608,-8388608
10:47:34.207097,-8388608,-8388608,-8388608,-8388608,284875,-8388608,-8388608,-8388608
10:47:34.207097,-8388608,-8388608,-8388608,-8388608,301414,-8388608,-8388608,-8388608
10:47:34.222073,-8388608,-8388608,-8388608,-8388608,336792,-8388608,-8388608,-8388608
10:47:34.223448,-8388608,-8388608,-8388608,-8388608,344643,-8388608,-8388608,-8388608
10:47:34.230253,-8388608,-8388608,-8388608,-8388608,314285,-8388608,-8388608,-8388608
10:47:34.231015,-8388608,-8388608,-8388608,-8388608,289345,-8388608,-8388608,-8388608
10:47:34.238743,-8388608,-8388608,-8388608,-8388608,305007,-8388608,-8388608,-8388608
10:47:34.243778,-8388608,-8388608,-8388608,-8388608,338591,-8388608,-8388608,-8388608
10:47:34.248165,-8388608,-8388608,-8388608,-8388608,345396,-8388608,-8388608,-8388608
10:47:34.252894,-8388608,-8388608,-8388608,-8388608,313243,-8388608,-8388608,-8388608
10:47:34.256179,-8388608,-8388608,-8388608,-8388608,287305,-8388608,-8388608,-8388608
10:47:34.256179,-8388608,-8388608,-8388608,-8388608,307198,-8388608,-8388608,-8388608
10:47:34.256179,-8388608,-8388608,-8388608,-8388608,344352,-8388608,-8388608,-8388608
10:47:34.256179,-8388608,-8388608,-8388608,-8388608,354087,-8388608,-8388608,-8388608
10:47:34.272031,-8388608,-8388608,-8388608,-8388608,319009,-8388608,-8388608,-8388608
10:47:34.273030,-8388608,-8388608,-8388608,-8388608,292877,-8388608,-8388608,-8388608
10:47:34.273030,-8388608,-8388608,-8388608,-8388608,311747,-8388608,-8388608,-8388608
10:47:34.273030,-8388608,-8388608,-8388608,-8388608,347358,-8388608,-8388608,-8388608
10:47:34.273030,-8388608,-8388608,-8388608,-8388608,342228,-8388608,-8388608,-8388608
10:47:34.289785,-8388608,-8388608,-8388608,-8388608,312678,-8388608,-8388608,-8388608
10:47:34.294308,-8388608,-8388608,-8388608,-8388608,289740,-8388608,-8388608,-8388608
10:47:34.294308,-8388608,-8388608,-8388608,-8388608,307857,-8388608,-8388608,-8388608
10:47:34.294308,-8388608,-8388608,-8388608,-8388608,344578,-8388608,-8388608,-8388608
10:47:34.305557,-8388608,-8388608,-8388608,-8388608,348051,-8388608,-8388608,-8388608
10:47:34.307018,-8388608,-8388608,-8388608,-8388608,318324,-8388608,-8388608,-8388608
10:47:34.307018,-8388608,-8388608,-8388608,-8388608,291554,-8388608,-8388608,-8388608
10:47:34.307018,-8388608,-8388608,-8388608,-8388608,308743,-8388608,-8388608,-8388608
10:47:34.323035,-8388608,-8388608,-8388608,-8388608,344719,-8388608,-8388608,-8388608
10:47:34.323694,-8388608,-8388608,-8388608,-8388608,350373,-8388608,-8388608,-8388608
10:47:34.323694,-8388608,-8388608,-8388608,-8388608,320212,-8388608,-8388608,-8388608
10:47:34.323694,-8388608,-8388608,-8388608,-8388608,297888,-8388608,-8388608,-8388608
10:47:34.339767,-8388608,-8388608,-8388608,-8388608,311810,-8388608,-8388608,-8388608
10:47:34.343804,-8388608,-8388608,-8388608,-8388608,341949,-8388608,-8388608,-8388608
10:47:34.346272,-8388608,-8388608,-8388608,-8388608,351437,-8388608,-8388608,-8388608
10:47:34.346272,-8388608,-8388608,-8388608,-8388608,321184,-8388608,-8388608,-8388608
10:47:34.356570,-8388608,-8388608,-8388608,-8388608,294106,-8388608,-8388608,-8388608
10:47:34.356570,-8388608,-8388608,-8388608,-8388608,312084,-8388608,-8388608,-8388608
10:47:34.356570,-8388608,-8388608,-8388608,-8388608,350869,-8388608,-8388608,-8388608
10:47:34.356570,-8388608,-8388608,-8388608,-8388608,355994,-8388608,-8388608,-8388608
10:47:34.371925,-8388608,-8388608,-8388608,-8388608,322106,-8388608,-8388608,-8388608
10:47:34.373402,-8388608,-8388608,-8388608,-8388608,293338,-8388608,-8388608,-8388608
10:47:34.373402,-8388608,-8388608,-8388608,-8388608,306478,-8388608,-8388608,-8388608
10:47:34.373402,-8388608,-8388608,-8388608,-8388608,345202,-8388608,-8388608,-8388608
10:47:34.373402,-8388608,-8388608,-8388608,-8388608,355680,-8388608,-8388608,-8388608
10:47:34.390196,-8388608,-8388608,-8388608,-8388608,324044,-8388608,-8388608,-8388608
10:47:34.394208,-8388608,-8388608,-8388608,-8388608,297903,-8388608,-8388608,-8388608
10:47:34.394208,-8388608,-8388608,-8388608,-8388608,311533,-8388608,-8388608,-8388608
10:47:34.394208,-8388608,-8388608,-8388608,-8388608,344050,-8388608,-8388608,-8388608
10:47:34.407005,-8388608,-8388608,-8388608,-8388608,356056,-8388608,-8388608,-8388608
10:47:34.423489,-8388608,-8388608,-8388608,-8388608,327224,-8388608,-8388608,-8388608
10:47:34.423489,-8388608,-8388608,-8388608,-8388608,301835,-8388608,-8388608,-8388608
10:47:34.423489,-8388608,-8388608,-8388608,-8388608,315894,-8388608,-8388608,-8388608
10:47:34.438539,-8388608,-8388608,-8388608,-8388608,343239,-8388608,-8388608,-8388608
10:47:34.440121,-8388608,-8388608,-8388608,-8388608,350009,-8388608,-8388608,-8388608
10:47:34.446116,-8388608,-8388608,-8388608,-8388608,321798,-8388608,-8388608,-8388608
10:47:34.446116,-8388608,-8388608,-8388608,-8388608,297346,-8388608,-8388608,-8388608
10:47:34.446116,-8388608,-8388608,-8388608,-8388608,313397,-8388608,-8388608,-8388608
10:47:34.456184,-8388608,-8388608,-8388608,-8388608,345274,-8388608,-8388608,-8388608
10:47:34.459108,-8388608,-8388608,-8388608,-8388608,357823,-8388608,-8388608,-8388608
10:47:34.462104,-8388608,-8388608,-8388608,-8388608,330435,-8388608,-8388608,-8388608
10:47:34.465197,-8388608,-8388608,-8388608,-8388608,297153,-8388608,-8388608,-8388608
10:47:34.469184,-8388608,-8388608,-8388608,-8388608,313467,-8388608,-8388608,-8388608
10:47:34.472104,-8388608,-8388608,-8388608,-8388608,352176,-8388608,-8388608,-8388608
10:47:34.472829,-8388608,-8388608,-8388608,-8388608,355773,-8388608,-8388608,-8388608
10:47:34.472829,-8388608,-8388608,-8388608,-8388608,323170,-8388608,-8388608,-8388608
10:47:34.472829,-8388608,-8388608,-8388608,-8388608,299331,-8388608,-8388608,-8388608
10:47:34.472829,-8388608,-8388608,-8388608,-8388608,314862,-8388608,-8388608,-8388608
10:47:34.487835,-8388608,-8388608,-8388608,-8388608,345738,-8388608,-8388608,-8388608
10:47:34.489549,-8388608,-8388608,-8388608,-8388608,349844,-8388608,-8388608,-8388608
10:47:34.494556,-8388608,-8388608,-8388608,-8388608,327933,-8388608,-8388608,-8388608
10:47:34.494556,-8388608,-8388608,-8388608,-8388608,300898,-8388608,-8388608,-8388608
10:47:34.494556,-8388608,-8388608,-8388608,-8388608,310969,-8388608,-8388608,-8388608
10:47:34.504928,-8388608,-8388608,-8388608,-8388608,345759,-8388608,-8388608,-8388608
10:47:34.505993,-8388608,-8388608,-8388608,-8388608,355838,-8388608,-8388608,-8388608
10:47:34.505993,-8388608,-8388608,-8388608,-8388608,331741,-8388608,-8388608,-8388608
10:47:34.505993,-8388608,-8388608,-8388608,-8388608,302556,-8388608,-8388608,-8388608
10:47:34.521594,-8388608,-8388608,-8388608,-8388608,313571,-8388608,-8388608,-8388608
10:47:34.522513,-8388608,-8388608,-8388608,-8388608,351436,-8388608,-8388608,-8388608
10:47:34.522513,-8388608,-8388608,-8388608,-8388608,358729,-8388608,-8388608,-8388608
10:47:34.522513,-8388608,-8388608,-8388608,-8388608,330611,-8388608,-8388608,-8388608
10:47:34.522513,-8388608,-8388608,-8388608,-8388608,305599,-8388608,-8388608,-8388608
10:47:34.538340,-8388608,-8388608,-8388608,-8388608,322003,-8388608,-8388608,-8388608
10:47:34.539502,-8388608,-8388608,-8388608,-8388608,353966,-8388608,-8388608,-8388608
10:47:34.539502,-8388608,-8388608,-8388608,-8388608,356748,-8388608,-8388608,-8388608
10:47:34.539502,-8388608,-8388608,-8388608,-8388608,326983,-8388608,-8388608,-8388608
10:47:34.539502,-8388608,-8388608,-8388608,-8388608,308320,-8388608,-8388608,-8388608
10:47:34.559108,-8388608,-8388608,-8388608,-8388608,320699,-8388608,-8388608,-8388608
10:47:34.559417,-8388608,-8388608,-8388608,-8388608,354424,-8388608,-8388608,-8388608
10:47:34.559417,-8388608,-8388608,-8388608,-8388608,363170,-8388608,-8388608,-8388608
10:47:34.571782,-8388608,-8388608,-8388608,-8388608,332643,-8388608,-8388608,-8388608
10:47:34.573074,-8388608,-8388608,-8388608,-8388608,307850,-8388608,-8388608,-8388608
10:47:34.573074,-8388608,-8388608,-8388608,-8388608,317814,-8388608,-8388608,-8388608
10:47:34.573074,-8388608,-8388608,-8388608,-8388608,354840,-8388608,-8388608,-8388608
10:47:34.588496,-8388608,-8388608,-8388608,-8388608,365052,-8388608,-8388608,-8388608
10:47:34.589961,-8388608,-8388608,-8388608,-8388608,336153,-8388608,-8388608,-8388608
10:47:34.594472,-8388608,-8388608,-8388608,-8388608,306302,-8388608,-8388608,-8388608
10:47:34.594472,-8388608,-8388608,-8388608,-8388608,318435,-8388608,-8388608,-8388608
10:47:34.594472,-8388608,-8388608,-8388608,-8388608,348528,-8388608,-8388608,-8388608
10:47:34.606141,-8388608,-8388608,-8388608,-8388608,347329,-8388608,-8388608,-8388608
10:47:34.606563,-8388608,-8388608,-8388608,-8388608,302314,-8388608,-8388608,-8388608
10:47:34.606563,-8388608,-8388608,-8388608,-8388608,265891,-8388608,-8388608,-8388608
10:47:34.606563,-8388608,-8388608,-8388608,-8388608,274418,-8388608,-8388608,-8388608
10:47:34.621811,-8388608,-8388608,-8388608,-8388608,317414,-8388608,-8388608,-8388608
10:47:34.626632,-8388608,-8388608,-8388608,-8388608,341453,-8388608,-8388608,-8388608
10:47:34.630007,-8388608,-8388608,-8388608,-8388608,324947,-8388608,-8388608,-8388608
10:47:34.632170,-8388608,-8388608,-8388608,-8388608,315083,-8388608,-8388608,-8388608
10:47:34.639477,-8388608,-8388608,-8388608,-8388608,329455,-8388608,-8388608,-8388608
10:47:34.640277,-8388608,-8388608,-8388608,-8388608,367164,-8388608,-8388608,-8388608
10:47:34.640277,-8388608,-8388608,-8388608,-8388608,376226,-8388608,-8388608,-8388608
10:47:34.640277,-8388608,-8388608,-8388608,-8388608,343799,-8388608,-8388608,-8388608
10:47:34.655057,-8388608,-8388608,-8388608,-8388608,308468,-8388608,-8388608,-8388608
10:47:34.656338,-8388608,-8388608,-8388608,-8388608,316149,-8388608,-8388608,-8388608
10:47:34.663207,-8388608,-8388608,-8388608,-8388608,349263,-8388608,-8388608,-8388608
10:47:34.663610,-8388608,-8388608,-8388608,-8388608,362329,-8388608,-8388608,-8388608
10:47:34.672802,-8388608,-8388608,-8388608,-8388608,332701,-8388608,-8388608,-8388608
10:47:34.677600,-8388608,-8388608,-8388608,-8388608,306671,-8388608,-8388608,-8388608
10:47:34.681662,-8388608,-8388608,-8388608,-8388608,318783,-8388608,-8388608,-8388608
10:47:34.684672,-8388608,-8388608,-8388608,-8388608,351137,-8388608,-8388608,-8388608
10:47:34.687835,-8388608,-8388608,-8388608,-8388608,356428,-8388608,-8388608,-8388608
10:47:34.689020,-8388608,-8388608,-8388608,-8388608,333988,-8388608,-8388608,-8388608
10:47:34.694613,-8388608,-8388608,-8388608,-8388608,310829,-8388608,-8388608,-8388608
10:47:34.694613,-8388608,-8388608,-8388608,-8388608,319915,-8388608,-8388608,-8388608
10:47:34.694613,-8388608,-8388608,-8388608,-8388608,349584,-8388608,-8388608,-8388608
10:47:34.706283,-8388608,-8388608,-8388608,-8388608,358071,-8388608,-8388608,-8388608
10:47:34.706283,-8388608,-8388608,-8388608,-8388608,327811,-8388608,-8388608,-8388608
10:47:34.706283,-8388608,-8388608,-8388608,-8388608,299707,-8388608,-8388608,-8388608
10:47:34.706283,-8388608,-8388608,-8388608,-8388608,314956,-8388608,-8388608,-8388608
10:47:34.722765,-8388608,-8388608,-8388608,-8388608,346002,-8388608,-8388608,-8388608
10:47:34.723296,-8388608,-8388608,-8388608,-8388608,356424,-8388608,-8388608,-8388608
10:47:34.723296,-8388608,-8388608,-8388608,-8388608,330608,-8388608,-8388608,-8388608
10:47:34.723296,-8388608,-8388608,-8388608,-8388608,305089,-8388608,-8388608,-8388608
10:47:34.739453,-8388608,-8388608,-8388608,-8388608,315425,-8388608,-8388608,-8388608
10:47:34.740687,-8388608,-8388608,-8388608,-8388608,346289,-8388608,-8388608,-8388608
10:47:34.740687,-8388608,-8388608,-8388608,-8388608,353003,-8388608,-8388608,-8388608
10:47:34.740687,-8388608,-8388608,-8388608,-8388608,322071,-8388608,-8388608,-8388608
10:47:34.740687,-8388608,-8388608,-8388608,-8388608,296873,-8388608,-8388608,-8388608
10:47:34.756567,-8388608,-8388608,-8388608,-8388608,315137,-8388608,-8388608,-8388608
10:47:34.756567,-8388608,-8388608,-8388608,-8388608,347016,-8388608,-8388608,-8388608
10:47:34.756567,-8388608,-8388608,-8388608,-8388608,353663,-8388608,-8388608,-8388608
10:47:34.756567,-8388608,-8388608,-8388608,-8388608,330079,-8388608,-8388608,-8388608
10:47:34.773674,-8388608,-8388608,-8388608,-8388608,299230,-8388608,-8388608,-8388608
10:47:34.777143,-8388608,-8388608,-8388608,-8388608,308784,-8388608,-8388608,-8388608
10:47:34.778452,-8388608,-8388608,-8388608,-8388608,342388,-8388608,-8388608,-8388608
10:47:34.778452,-8388608,-8388608,-8388608,-8388608,346313,-8388608,-8388608,-8388608
10:47:34.789221,-8388608,-8388608,-8388608,-8388608,320544,-8388608,-8388608,-8388608
10:47:34.794791,-8388608,-8388608,-8388608,-8388608,300418,-8388608,-8388608,-8388608
10:47:34.794791,-8388608,-8388608,-8388608,-8388608,307446,-8388608,-8388608,-8388608
10:47:34.794791,-8388608,-8388608,-8388608,-8388608,334179,-8388608,-8388608,-8388608
10:47:34.806363,-8388608,-8388608,-8388608,-8388608,341699,-8388608,-8388608,-8388608
10:47:34.806363,-8388608,-8388608,-8388608,-8388608,316253,-8388608,-8388608,-8388608
10:47:34.806363,-8388608,-8388608,-8388608,-8388608,293331,-8388608,-8388608,-8388608
10:47:34.806363,-8388608,-8388608,-8388608,-8388608,303213,-8388608,-8388608,-8388608
10:47:34.823182,-8388608,-8388608,-8388608,-8388608,335023,-8388608,-8388608,-8388608
10:47:34.823182,-8388608,-8388608,-8388608,-8388608,348375,-8388608,-8388608,-8388608
10:47:34.823182,-8388608,-8388608,-8388608,-8388608,320216,-8388608,-8388608,-8388608
10:47:34.823182,-8388608,-8388608,-8388608,-8388608,289327,-8388608,-8388608,-8388608
10:47:34.823182,-8388608,-8388608,-8388608,-8388608,299404,-8388608,-8388608,-8388608
10:47:34.839904,-8388608,-8388608,-8388608,-8388608,338699,-8388608,-8388608,-8388608
10:47:34.839904,-8388608,-8388608,-8388608,-8388608,346737,-8388608,-8388608,-8388608
10:47:34.839904,-8388608,-8388608,-8388608,-8388608,319609,-8388608,-8388608,-8388608
10:47:34.839904,-8388608,-8388608,-8388608,-8388608,300184,-8388608,-8388608,-8388608
10:47:34.856348,-8388608,-8388608,-8388608,-8388608,304015,-8388608,-8388608,-8388608
10:47:34.861748,-8388608,-8388608,-8388608,-8388608,342198,-8388608,-8388608,-8388608
10:47:34.864137,-8388608,-8388608,-8388608,-8388608,356713,-8388608,-8388608,-8388608
10:47:34.864137,-8388608,-8388608,-8388608,-8388608,326243,-8388608,-8388608,-8388608
10:47:34.873571,-8388608,-8388608,-8388608,-8388608,299836,-8388608,-8388608,-8388608
10:47:34.877498,-8388608,-8388608,-8388608,-8388608,308847,-8388608,-8388608,-8388608
10:47:34.884254,-8388608,-8388608,-8388608,-8388608,346603,-8388608,-8388608,-8388608
10:47:34.887013,-8388608,-8388608,-8388608,-8388608,364681,-8388608,-8388608,-8388608
10:47:34.889194,-8388608,-8388608,-8388608,-8388608,335489,-8388608,-8388608,-8388608
10:47:34.894822,-8388608,-8388608,-8388608,-8388608,308028,-8388608,-8388608,-8388608
10:47:34.894822,-8388608,-8388608,-8388608,-8388608,315279,-8388608,-8388608,-8388608
10:47:34.904332,-8388608,-8388608,-8388608,-8388608,353559,-8388608,-8388608,-8388608
10:47:34.906149,-8388608,-8388608,-8388608,-8388608,366413,-8388608,-8388608,-8388608
10:47:34.906149,-8388608,-8388608,-8388608,-8388608,341558,-8388608,-8388608,-8388608
10:47:34.906149,-8388608,-8388608,-8388608,-8388608,308842,-8388608,-8388608,-8388608
10:47:34.906149,-8388608,-8388608,-8388608,-8388608,316227,-8388608,-8388608,-8388608
10:47:34.921610,-8388608,-8388608,-8388608,-8388608,353228,-8388608,-8388608,-8388608
10:47:34.923186,-8388608,-8388608,-8388608,-8388608,368487,-8388608,-8388608,-8388608
10:47:34.923186,-8388608,-8388608,-8388608,-8388608,339815,-8388608,-8388608,-8388608
10:47:34.923186,-8388608,-8388608,-8388608,-8388608,307343,-8388608,-8388608,-8388608
10:47:34.923186,-8388608,-8388608,-8388608,-8388608,318131,-8388608,-8388608,-8388608
10:47:34.939424,-8388608,-8388608,-8388608,-8388608,355008,-8388608,-8388608,-8388608
10:47:34.939424,-8388608,-8388608,-8388608,-8388608,364014,-8388608,-8388608,-8388608
10:47:34.939424,-8388608,-8388608,-8388608,-8388608,335199,-8388608,-8388608,-8388608
10:47:34.954894,-8388608,-8388608,-8388608,-8388608,311223,-8388608,-8388608,-8388608
10:47:34.956486,-8388608,-8388608,-8388608,-8388608,321246,-8388608,-8388608,-8388608
10:47:34.956486,-8388608,-8388608,-8388608,-8388608,356093,-8388608,-8388608,-8388608
10:47:34.956486,-8388608,-8388608,-8388608,-8388608,362571,-8388608,-8388608,-8388608
10:47:34.971602,-8388608,-8388608,-8388608,-8388608,335766,-8388608,-8388608,-8388608
10:47:34.973295,-8388608,-8388608,-8388608,-8388608,313671,-8388608,-8388608,-8388608
10:47:34.973295,-8388608,-8388608,-8388608,-8388608,319333,-8388608,-8388608,-8388608
10:47:34.973295,-8388608,-8388608,-8388608,-8388608,355367,-8388608,-8388608,-8388608
10:47:34.973295,-8388608,-8388608,-8388608,-8388608,373228,-8388608,-8388608,-8388608
10:47:34.991046,-8388608,-8388608,-8388608,-8388608,343132,-8388608,-8388608,-8388608
10:47:34.995013,-8388608,-8388608,-8388608,-8388608,307181,-8388608,-8388608,-8388608
10:47:34.995362,-8388608,-8388608,-8388608,-8388608,319624,-8388608,-8388608,-8388608
10:47:34.995362,-8388608,-8388608,-8388608,-8388608,358119,-8388608,-8388608,-8388608
10:47:35.005551,-8388608,-8388608,-8388608,-8388608,373424,-8388608,-8388608,-8388608
10:47:35.006025,-8388608,-8388608,-8388608,-8388608,341964,-8388608,-8388608,-8388608
10:47:35.006025,-8388608,-8388608,-8388608,-8388608,311899,-8388608,-8388608,-8388608
10:47:35.006025,-8388608,-8388608,-8388608,-8388608,320177,-8388608,-8388608,-8388608
10:47:35.021589,-8388608,-8388608,-8388608,-8388608,352706,-8388608,-8388608,-8388608
10:47:35.023197,-8388608,-8388608,-8388608,-8388608,364255,-8388608,-8388608,-8388608
10:47:35.023197,-8388608,-8388608,-8388608,-8388608,337306,-8388608,-8388608,-8388608
10:47:35.023197,-8388608,-8388608,-8388608,-8388608,311366,-8388608,-8388608,-8388608
10:47:35.023197,-8388608,-8388608,-8388608,-8388608,325469,-8388608,-8388608,-8388608
10:47:35.039637,-8388608,-8388608,-8388608,-8388608,355790,-8388608,-8388608,-8388608
10:47:35.039637,-8388608,-8388608,-8388608,-8388608,368079,-8388608,-8388608,-8388608
10:47:35.039637,-8388608,-8388608,-8388608,-8388608,340203,-8388608,-8388608,-8388608
10:47:35.054754,-8388608,-8388608,-8388608,-8388608,308236,-8388608,-8388608,-8388608
10:47:35.056482,-8388608,-8388608,-8388608,-8388608,317033,-8388608,-8388608,-8388608
10:47:35.056482,-8388608,-8388608,-8388608,-8388608,356545,-8388608,-8388608,-8388608
10:47:35.056482,-8388608,-8388608,-8388608,-8388608,372243,-8388608,-8388608,-8388608
10:47:35.072642,-8388608,-8388608,-8388608,-8388608,345487,-8388608,-8388608,-8388608
10:47:35.073164,-8388608,-8388608,-8388608,-8388608,310248,-8388608,-8388608,-8388608
10:47:35.080415,-8388608,-8388608,-8388608,-8388608,321788,-8388608,-8388608,-8388608
10:47:35.080415,-8388608,-8388608,-8388608,-8388608,357531,-8388608,-8388608,-8388608
10:47:35.088019,-8388608,-8388608,-8388608,-8388608,365353,-8388608,-8388608,-8388608
10:47:35.091022,-8388608,-8388608,-8388608,-8388608,339832,-8388608,-8388608,-8388608
10:47:35.095255,-8388608,-8388608,-8388608,-8388608,310763,-8388608,-8388608,-8388608
10:47:35.098221,-8388608,-8388608,-8388608,-8388608,324161,-8388608,-8388608,-8388608
10:47:35.101185,-8388608,-8388608,-8388608,-8388608,359388,-8388608,-8388608,-8388608
10:47:35.105489,-8388608,-8388608,-8388608,-8388608,369633,-8388608,-8388608,-8388608
10:47:35.105489,-8388608,-8388608,-8388608,-8388608,338889,-8388608,-8388608,-8388608
10:47:35.105489,-8388608,-8388608,-8388608,-8388608,310768,-8388608,-8388608,-8388608
10:47:35.105489,-8388608,-8388608,-8388608,-8388608,319805,-8388608,-8388608,-8388608
10:47:35.121258,-8388608,-8388608,-8388608,-8388608,358108,-8388608,-8388608,-8388608
10:47:35.122510,-8388608,-8388608,-8388608,-8388608,366871,-8388608,-8388608,-8388608
10:47:35.122510,-8388608,-8388608,-8388608,-8388608,344859,-8388608,-8388608,-8388608
10:47:35.122510,-8388608,-8388608,-8388608,-8388608,313523,-8388608,-8388608,-8388608
10:47:35.138003,-8388608,-8388608,-8388608,-8388608,318027,-8388608,-8388608,-8388608
10:47:35.139745,-8388608,-8388608,-8388608,-8388608,348481,-8388608,-8388608,-8388608
10:47:35.139745,-8388608,-8388608,-8388608,-8388608,365415,-8388608,-8388608,-8388608
10:47:35.139745,-8388608,-8388608,-8388608,-8388608,342465,-8388608,-8388608,-8388608
10:47:35.154451,-8388608,-8388608,-8388608,-8388608,312811,-8388608,-8388608,-8388608
10:47:35.155284,-8388608,-8388608,-8388608,-8388608,321989,-8388608,-8388608,-8388608
10:47:35.155284,-8388608,-8388608,-8388608,-8388608,354208,-8388608,-8388608,-8388608
10:47:35.155284,-8388608,-8388608,-8388608,-8388608,366147,-8388608,-8388608,-8388608
10:47:35.155284,-8388608,-8388608,-8388608,-8388608,342699,-8388608,-8388608,-8388608
10:47:35.171758,-8388608,-8388608,-8388608,-8388608,313278,-8388608,-8388608,-8388608
10:47:35.171758,-8388608,-8388608,-8388608,-8388608,319564,-8388608,-8388608,-8388608
10:47:35.171758,-8388608,-8388608,-8388608,-8388608,354729,-8388608,-8388608,-8388608
10:47:35.171758,-8388608,-8388608,-8388608,-8388608,371099,-8388608,-8388608,-8388608
10:47:35.189694,-8388608,-8388608,-8388608,-8388608,345601,-8388608,-8388608,-8388608
10:47:35.193475,-8388608,-8388608,-8388608,-8388608,311350,-8388608,-8388608,-8388608
10:47:35.195570,-8388608,-8388608,-8388608,-8388608,322208,-8388608,-8388608,-8388608
10:47:35.195570,-8388608,-8388608,-8388608,-8388608,359145,-8388608,-8388608,-8388608
10:47:35.205726,-8388608,-8388608,-8388608,-8388608,363743,-8388608,-8388608,-8388608
10:47:35.205726,-8388608,-8388608,-8388608,-8388608,336557,-8388608,-8388608,-8388608
10:47:35.205726,-8388608,-8388608,-8388608,-8388608,310882,-8388608,-8388608,-8388608
10:47:35.205726,-8388608,-8388608,-8388608,-8388608,322718,-8388608,-8388608,-8388608
10:47:35.222715,-8388608,-8388608,-8388608,-8388608,354908,-8388608,-8388608,-8388608
10:47:35.222715,-8388608,-8388608,-8388608,-8388608,368253,-8388608,-8388608,-8388608
10:47:35.222715,-8388608,-8388608,-8388608,-8388608,340603,-8388608,-8388608,-8388608
10:47:35.222715,-8388608,-8388608,-8388608,-8388608,308499,-8388608,-8388608,-8388608
10:47:35.238045,-8388608,-8388608,-8388608,-8388608,317759,-8388608,-8388608,-8388608
10:47:35.239603,-8388608,-8388608,-8388608,-8388608,355769,-8388608,-8388608,-8388608
10:47:35.239603,-8388608,-8388608,-8388608,-8388608,368501,-8388608,-8388608,-8388608
10:47:35.239603,-8388608,-8388608,-8388608,-8388608,340608,-8388608,-8388608,-8388608
10:47:35.239603,-8388608,-8388608,-8388608,-8388608,311829,-8388608,-8388608,-8388608
10:47:35.255824,-8388608,-8388608,-8388608,-8388608,318953,-8388608,-8388608,-8388608
10:47:35.255824,-8388608,-8388608,-8388608,-8388608,352608,-8388608,-8388608,-8388608
10:47:35.255824,-8388608,-8388608,-8388608,-8388608,365237,-8388608,-8388608,-8388608
10:47:35.255824,-8388608,-8388608,-8388608,-8388608,341429,-8388608,-8388608,-8388608
10:47:35.272598,-8388608,-8388608,-8388608,-8388608,314515,-8388608,-8388608,-8388608
10:47:35.278155,-8388608,-8388608,-8388608,-8388608,320888,-8388608,-8388608,-8388608
10:47:35.279610,-8388608,-8388608,-8388608,-8388608,352732,-8388608,-8388608,-8388608
10:47:35.279610,-8388608,-8388608,-8388608,-8388608,368633,-8388608,-8388608,-8388608
10:47:35.288581,-8388608,-8388608,-8388608,-8388608,342768,-8388608,-8388608,-8388608
10:47:35.293538,-8388608,-8388608,-8388608,-8388608,310016,-8388608,-8388608,-8388608
10:47:35.298078,-8388608,-8388608,-8388608,-8388608,318253,-8388608,-8388608,-8388608
10:47:35.303068,-8388608,-8388608,-8388608,-8388608,351813,-8388608,-8388608,-8388608
10:47:35.305175,-8388608,-8388608,-8388608,-8388608,365354,-8388608,-8388608,-8388608
10:47:35.305175,-8388608,-8388608,-8388608,-8388608,337238,-8388608,-8388608,-8388608
10:47:35.305175,-8388608,-8388608,-8388608,-8388608,310056,-8388608,-8388608,-8388608
10:47:35.305175,-8388608,-8388608,-8388608,-8388608,318031,-8388608,-8388608,-8388608
10:47:35.321487,-8388608,-8388608,-8388608,-8388608,345696,-8388608,-8388608,-8388608
10:47:35.321487,-8388608,-8388608,-8388608,-8388608,364402,-8388608,-8388608,-8388608
10:47:35.321487,-8388608,-8388608,-8388608,-8388608,338876,-8388608,-8388608,-8388608
10:47:35.321487,-8388608,-8388608,-8388608,-8388608,307112,-8388608,-8388608,-8388608
10:47:35.336494,-8388608,-8388608,-8388608,-8388608,314368,-8388608,-8388608,-8388608
10:47:35.338250,-8388608,-8388608,-8388608,-8388608,349430,-8388608,-8388608,-8388608
10:47:35.338250,-8388608,-8388608,-8388608,-8388608,359923,-8388608,-8388608,-8388608
10:47:35.338250,-8388608,-8388608,-8388608,-8388608,335879,-8388608,-8388608,-8388608
10:47:35.338250,-8388608,-8388608,-8388608,-8388608,305469,-8388608,-8388608,-8388608
10:47:35.355036,-8388608,-8388608,-8388608,-8388608,315634,-8388608,-8388608,-8388608
10:47:35.355036,-8388608,-8388608,-8388608,-8388608,347499,-8388608,-8388608,-8388608
10:47:35.355036,-8388608,-8388608,-8388608,-8388608,360751,-8388608,-8388608,-8388608
10:47:35.370781,-8388608,-8388608,-8388608,-8388608,338352,-8388608,-8388608,-8388608
10:47:35.371586,-8388608,-8388608,-8388608,-8388608,308630,-8388608,-8388608,-8388608
10:47:35.371586,-8388608,-8388608,-8388608,-8388608,312055,-8388608,-8388608,-8388608
10:47:35.371586,-8388608,-8388608,-8388608,-8388608,350319,-8388608,-8388608,-8388608
10:47:35.386593,-8388608,-8388608,-8388608,-8388608,366947,-8388608,-8388608,-8388608
10:47:35.388060,-8388608,-8388608,-8388608,-8388608,342319,-8388608,-8388608,-8388608
10:47:35.388060,-8388608,-8388608,-8388608,-8388608,311097,-8388608,-8388608,-8388608
10:47:35.395578,-8388608,-8388608,-8388608,-8388608,318874,-8388608,-8388608,-8388608
10:47:35.395578,-8388608,-8388608,-8388608,-8388608,352023,-8388608,-8388608,-8388608
10:47:35.404070,-8388608,-8388608,-8388608,-8388608,365626,-8388608,-8388608,-8388608
10:47:35.408072,-8388608,-8388608,-8388608,-8388608,337438,-8388608,-8388608,-8388608
10:47:35.408874,-8388608,-8388608,-8388608,-8388608,311494,-8388608,-8388608,-8388608
10:47:35.408874,-8388608,-8388608,-8388608,-8388608,313574,-8388608,-8388608,-8388608
10:47:35.421392,-8388608,-8388608,-8388608,-8388608,348781,-8388608,-8388608,-8388608
10:47:35.421392,-8388608,-8388608,-8388608,-8388608,366073,-8388608,-8388608,-8388608
10:47:35.421392,-8388608,-8388608,-8388608,-8388608,339979,-8388608,-8388608,-8388608
10:47:35.421392,-8388608,-8388608,-8388608,-8388608,307502,-8388608,-8388608,-8388608
10:47:35.438141,-8388608,-8388608,-8388608,-8388608,311996,-8388608,-8388608,-8388608
10:47:35.438141,-8388608,-8388608,-8388608,-8388608,346988,-8388608,-8388608,-8388608
10:47:35.438141,-8388608,-8388608,-8388608,-8388608,364299,-8388608,-8388608,-8388608
10:47:35.438141,-8388608,-8388608,-8388608,-8388608,339726,-8388608,-8388608,-8388608
10:47:35.453164,-8388608,-8388608,-8388608,-8388608,308578,-8388608,-8388608,-8388608
10:47:35.454704,-8388608,-8388608,-8388608,-8388608,312296,-8388608,-8388608,-8388608
10:47:35.454704,-8388608,-8388608,-8388608,-8388608,345471,-8388608,-8388608,-8388608
10:47:35.454704,-8388608,-8388608,-8388608,-8388608,349341,-8388608,-8388608,-8388608
10:47:35.469723,-8388608,-8388608,-8388608,-8388608,305538,-8388608,-8388608,-8388608
10:47:35.471729,-8388608,-8388608,-8388608,-8388608,265064,-8388608,-8388608,-8388608
10:47:35.471729,-8388608,-8388608,-8388608,-8388608,268456,-8388608,-8388608,-8388608
10:47:35.471729,-8388608,-8388608,-8388608,-8388608,302356,-8388608,-8388608,-8388608
10:47:35.487422,-8388608,-8388608,-8388608,-8388608,323668,-8388608,-8388608,-8388608
10:47:35.492110,-8388608,-8388608,-8388608,-8388608,311154,-8388608,-8388608,-8388608
10:47:35.495703,-8388608,-8388608,-8388608,-8388608,304764,-8388608,-8388608,-8388608
10:47:35.495703,-8388608,-8388608,-8388608,-8388608,328723,-8388608,-8388608,-8388608
10:47:35.495703,-8388608,-8388608,-8388608,-8388608,362569,-8388608,-8388608,-8388608
10:47:35.505176,-8388608,-8388608,-8388608,-8388608,375231,-8388608,-8388608,-8388608
10:47:35.508175,-8388608,-8388608,-8388608,-8388608,341590,-8388608,-8388608,-8388608
10:47:35.513175,-8388608,-8388608,-8388608,-8388608,307204,-8388608,-8388608,-8388608
10:47:35.516185,-8388608,-8388608,-8388608,-8388608,307611,-8388608,-8388608,-8388608
10:47:35.520175,-8388608,-8388608,-8388608,-8388608,341628,-8388608,-8388608,-8388608
10:47:35.521598,-8388608,-8388608,-8388608,-8388608,359620,-8388608,-8388608,-8388608
10:47:35.521598,-8388608,-8388608,-8388608,-8388608,333211,-8388608,-8388608,-8388608
10:47:35.521598,-8388608,-8388608,-8388608,-8388608,300046,-8388608,-8388608,-8388608
10:47:35.537429,-8388608,-8388608,-8388608,-8388608,304834,-8388608,-8388608,-8388608
10:47:35.538430,-8388608,-8388608,-8388608,-8388608,338624,-8388608,-8388608,-8388608
10:47:35.538430,-8388608,-8388608,-8388608,-8388608,358141,-8388608,-8388608,-8388608
10:47:35.538430,-8388608,-8388608,-8388608,-8388608,334196,-8388608,-8388608,-8388608
10:47:35.553957,-8388608,-8388608,-8388608,-8388608,300952,-8388608,-8388608,-8388608
10:47:35.558894,-8388608,-8388608,-8388608,-8388608,304557,-8388608,-8388608,-8388608
10:47:35.562352,-8388608,-8388608,-8388608,-8388608,337909,-8388608,-8388608,-8388608
10:47:35.567124,-8388608,-8388608,-8388608,-8388608,356691,-8388608,-8388608,-8388608
10:47:35.571396,-8388608,-8388608,-8388608,-8388608,328979,-8388608,-8388608,-8388608
10:47:35.572687,-8388608,-8388608,-8388608,-8388608,301187,-8388608,-8388608,-8388608
10:47:35.580046,-8388608,-8388608,-8388608,-8388608,305564,-8388608,-8388608,-8388608
10:47:35.584595,-8388608,-8388608,-8388608,-8388608,337249,-8388608,-8388608,-8388608
10:47:35.588050,-8388608,-8388608,-8388608,-8388608,350959,-8388608,-8388608,-8388608
10:47:35.592277,-8388608,-8388608,-8388608,-8388608,325638,-8388608,-8388608,-8388608
10:47:35.596696,-8388608,-8388608,-8388608,-8388608,296673,-8388608,-8388608,-8388608
10:47:35.598933,-8388608,-8388608,-8388608,-8388608,302023,-8388608,-8388608,-8388608
10:47:35.600912,-8388608,-8388608,-8388608,-8388608,334556,-8388608,-8388608,-8388608
10:47:35.606330,-8388608,-8388608,-8388608,-8388608,350796,-8388608,-8388608,-8388608
10:47:35.606330,-8388608,-8388608,-8388608,-8388608,320559,-8388608,-8388608,-8388608
10:47:35.613557,-8388608,-8388608,-8388608,-8388608,293915,-8388608,-8388608,-8388608
10:47:35.617729,-8388608,-8388608,-8388608,-8388608,298834,-8388608,-8388608,-8388608
10:47:35.622598,-8388608,-8388608,-8388608,-8388608,332947,-8388608,-8388608,-8388608
10:47:35.626634,-8388608,-8388608,-8388608,-8388608,348840,-8388608,-8388608,-8388608
10:47:35.629609,-8388608,-8388608,-8388608,-8388608,324104,-8388608,-8388608,-8388608
10:47:35.635634,-8388608,-8388608,-8388608,-8388608,294719,-8388608,-8388608,-8388608
10:47:35.639174,-8388608,-8388608,-8388608,-8388608,300552,-8388608,-8388608,-8388608
10:47:35.643419,-8388608,-8388608,-8388608,-8388608,328508,-8388608,-8388608,-8388608
10:47:35.647237,-8388608,-8388608,-8388608,-8388608,338848,-8388608,-8388608,-8388608
10:47:35.649850,-8388608,-8388608,-8388608,-8388608,316001,-8388608,-8388608,-8388608
10:47:35.655059,-8388608,-8388608,-8388608,-8388608,288612,-8388608,-8388608,-8388608
10:47:35.658952,-8388608,-8388608,-8388608,-8388608,296287,-8388608,-8388608,-8388608
10:47:35.662104,-8388608,-8388608,-8388608,-8388608,328403,-8388608,-8388608,-8388608
10:47:35.665422,-8388608,-8388608,-8388608,-8388608,339728,-8388608,-8388608,-8388608
10:47:35.669778,-8388608,-8388608,-8388608,-8388608,312663,-8388608,-8388608,-8388608
10:47:35.672103,-8388608,-8388608,-8388608,-8388608,283291,-8388608,-8388608,-8388608
10:47:35.676231,-8388608,-8388608,-8388608,-8388608,291818,-8388608,-8388608,-8388608
10:47:35.680599,-8388608,-8388608,-8388608,-8388608,322568,-8388608,-8388608,-8388608
10:47:35.684625,-8388608,-8388608,-8388608,-8388608,335784,-8388608,-8388608,-8388608
10:47:35.688409,-8388608,-8388608,-8388608,-8388608,311918,-8388608,-8388608,-8388608
10:47:35.693912,-8388608,-8388608,-8388608,-8388608,279939,-8388608,-8388608,-8388608
10:47:35.697663,-8388608,-8388608,-8388608,-8388608,286752,-8388608,-8388608,-8388608
10:47:35.702455,-8388608,-8388608,-8388608,-8388608,317331,-8388608,-8388608,-8388608
10:47:35.706097,-8388608,-8388608,-8388608,-8388608,334643,-8388608,-8388608,-8388608
10:47:35.710484,-8388608,-8388608,-8388608,-8388608,311881,-8388608,-8388608,-8388608
10:47:35.714019,-8388608,-8388608,-8388608,-8388608,288240,-8388608,-8388608,-8388608
10:47:35.717941,-8388608,-8388608,-8388608,-8388608,289544,-8388608,-8388608,-8388608
10:47:35.721466,-8388608,-8388608,-8388608,-8388608,323303,-8388608,-8388608,-8388608
10:47:35.724192,-8388608,-8388608,-8388608,-8388608,341610,-8388608,-8388608,-8388608
10:47:35.728585,-8388608,-8388608,-8388608,-8388608,320595,-8388608,-8388608,-8388608
10:47:35.730288,-8388608,-8388608,-8388608,-8388608,292848,-8388608,-8388608,-8388608
10:47:35.735393,-8388608,-8388608,-8388608,-8388608,299613,-8388608,-8388608,-8388608
10:47:35.739322,-8388608,-8388608,-8388608,-8388608,333011,-8388608,-8388608,-8388608
10:47:35.742594,-8388608,-8388608,-8388608,-8388608,345221,-8388608,-8388608,-8388608
10:47:35.742594,-8388608,-8388608,-8388608,-8388608,321382,-8388608,-8388608,-8388608
10:47:35.742594,-8388608,-8388608,-8388608,-8388608,293014,-8388608,-8388608,-8388608
10:47:35.754967,-8388608,-8388608,-8388608,-8388608,298263,-8388608,-8388608,-8388608
10:47:35.754967,-8388608,-8388608,-8388608,-8388608,336939,-8388608,-8388608,-8388608
10:47:35.754967,-8388608,-8388608,-8388608,-8388608,355161,-8388608,-8388608,-8388608
10:47:35.754967,-8388608,-8388608,-8388608,-8388608,330106,-8388608,-8388608,-8388608
10:47:35.771267,-8388608,-8388608,-8388608,-8388608,296558,-8388608,-8388608,-8388608
10:47:35.771267,-8388608,-8388608,-8388608,-8388608,299374,-8388608,-8388608,-8388608
10:47:35.771267,-8388608,-8388608,-8388608,-8388608,332308,-8388608,-8388608,-8388608
10:47:35.788041,-8388608,-8388608,-8388608,-8388608,352024,-8388608,-8388608,-8388608
10:47:35.788041,-8388608,-8388608,-8388608,-8388608,329057,-8388608,-8388608,-8388608
10:47:35.788041,-8388608,-8388608,-8388608,-8388608,299989,-8388608,-8388608,-8388608
10:47:35.796049,-8388608,-8388608,-8388608,-8388608,301959,-8388608,-8388608,-8388608
10:47:35.796049,-8388608,-8388608,-8388608,-8388608,334211,-8388608,-8388608,-8388608
10:47:35.804601,-8388608,-8388608,-8388608,-8388608,356145,-8388608,-8388608,-8388608
10:47:35.804601,-8388608,-8388608,-8388608,-8388608,330521,-8388608,-8388608,-8388608
10:47:35.804601,-8388608,-8388608,-8388608,-8388608,299180,-8388608,-8388608,-8388608
10:47:35.804601,-8388608,-8388608,-8388608,-8388608,306678,-8388608,-8388608,-8388608
10:47:35.819608,-8388608,-8388608,-8388608,-8388608,340134,-8388608,-8388608,-8388608
10:47:35.821283,-8388608,-8388608,-8388608,-8388608,355573,-8388608,-8388608,-8388608
10:47:35.821283,-8388608,-8388608,-8388608,-8388608,331794,-8388608,-8388608,-8388608
10:47:35.821283,-8388608,-8388608,-8388608,-8388608,296298,-8388608,-8388608,-8388608
10:47:35.837085,-8388608,-8388608,-8388608,-8388608,298359,-8388608,-8388608,-8388608
10:47:35.841087,-8388608,-8388608,-8388608,-8388608,334033,-8388608,-8388608,-8388608
10:47:35.841496,-8388608,-8388608,-8388608,-8388608,355949,-8388608,-8388608,-8388608
10:47:35.841496,-8388608,-8388608,-8388608,-8388608,334031,-8388608,-8388608,-8388608
10:47:35.841496,-8388608,-8388608,-8388608,-8388608,296892,-8388608,-8388608,-8388608
10:47:35.854537,-8388608,-8388608,-8388608,-8388608,301018,-8388608,-8388608,-8388608
10:47:35.854537,-8388608,-8388608,-8388608,-8388608,332874,-8388608,-8388608,-8388608
10:47:35.854537,-8388608,-8388608,-8388608,-8388608,349509,-8388608,-8388608,-8388608
10:47:35.854537,-8388608,-8388608,-8388608,-8388608,326084,-8388608,-8388608,-8388608
10:47:35.871239,-8388608,-8388608,-8388608,-8388608,296809,-8388608,-8388608,-8388608
10:47:35.871239,-8388608,-8388608,-8388608,-8388608,297863,-8388608,-8388608,-8388608
10:47:35.871239,-8388608,-8388608,-8388608,-8388608,332620,-8388608,-8388608,-8388608
10:47:35.887234,-8388608,-8388608,-8388608,-8388608,352196,-8388608,-8388608,-8388608
10:47:35.888190,-8388608,-8388608,-8388608,-8388608,325698,-8388608,-8388608,-8388608
10:47:35.896301,-8388608,-8388608,-8388608,-8388608,294741,-8388608,-8388608,-8388608
10:47:35.896301,-8388608,-8388608,-8388608,-8388608,297683,-8388608,-8388608,-8388608
10:47:35.903313,-8388608,-8388608,-8388608,-8388608,333833,-8388608,-8388608,-8388608
10:47:35.905579,-8388608,-8388608,-8388608,-8388608,351270,-8388608,-8388608,-8388608
10:47:35.905579,-8388608,-8388608,-8388608,-8388608,328906,-8388608,-8388608,-8388608
10:47:35.913003,-8388608,-8388608,-8388608,-8388608,298539,-8388608,-8388608,-8388608
10:47:35.913267,-8388608,-8388608,-8388608,-8388608,302752,-8388608,-8388608,-8388608
10:47:35.913267,-8388608,-8388608,-8388608,-8388608,336873,-8388608,-8388608,-8388608
10:47:35.923538,-8388608,-8388608,-8388608,-8388608,347406,-8388608,-8388608,-8388608
10:47:35.927940,-8388608,-8388608,-8388608,-8388608,327134,-8388608,-8388608,-8388608
10:47:35.932031,-8388608,-8388608,-8388608,-8388608,300308,-8388608,-8388608,-8388608
10:47:35.936031,-8388608,-8388608,-8388608,-8388608,297664,-8388608,-8388608,-8388608
10:47:35.938030,-8388608,-8388608,-8388608,-8388608,333633,-8388608,-8388608,-8388608
10:47:35.938030,-8388608,-8388608,-8388608,-8388608,348150,-8388608,-8388608,-8388608
10:47:35.938030,-8388608,-8388608,-8388608,-8388608,319757,-8388608,-8388608,-8388608
10:47:35.953784,-8388608,-8388608,-8388608,-8388608,292919,-8388608,-8388608,-8388608
10:47:35.957848,-8388608,-8388608,-8388608,-8388608,294056,-8388608,-8388608,-8388608
10:47:35.959218,-8388608,-8388608,-8388608,-8388608,330114,-8388608,-8388608,-8388608
10:47:35.959218,-8388608,-8388608,-8388608,-8388608,348674,-8388608,-8388608,-8388608
10:47:35.959218,-8388608,-8388608,-8388608,-8388608,321605,-8388608,-8388608,-8388608
10:47:35.971430,-8388608,-8388608,-8388608,-8388608,294303,-8388608,-8388608,-8388608
10:47:35.971430,-8388608,-8388608,-8388608,-8388608,300936,-8388608,-8388608,-8388608
10:47:35.971430,-8388608,-8388608,-8388608,-8388608,333117,-8388608,-8388608,-8388608
10:47:35.971430,-8388608,-8388608,-8388608,-8388608,349401,-8388608,-8388608,-8388608
10:47:35.988084,-8388608,-8388608,-8388608,-8388608,323073,-8388608,-8388608,-8388608
10:47:35.988084,-8388608,-8388608,-8388608,-8388608,291771,-8388608,-8388608,-8388608
10:47:35.988084,-8388608,-8388608,-8388608,-8388608,292998,-8388608,-8388608,-8388608
10:47:35.996637,-8388608,-8388608,-8388608,-8388608,326374,-8388608,-8388608,-8388608
10:47:36.003256,-8388608,-8388608,-8388608,-8388608,348641,-8388608,-8388608,-8388608
10:47:36.005109,-8388608,-8388608,-8388608,-8388608,330651,-8388608,-8388608,-8388608
10:47:36.005109,-8388608,-8388608,-8388608,-8388608,298635,-8388608,-8388608,-8388608
10:47:36.005109,-8388608,-8388608,-8388608,-8388608,295319,-8388608,-8388608,-8388608
10:47:36.020451,-8388608,-8388608,-8388608,-8388608,327412,-8388608,-8388608,-8388608
10:47:36.021970,-8388608,-8388608,-8388608,-8388608,347572,-8388608,-8388608,-8388608
10:47:36.021970,-8388608,-8388608,-8388608,-8388608,322415,-8388608,-8388608,-8388608
10:47:36.021970,-8388608,-8388608,-8388608,-8388608,292129,-8388608,-8388608,-8388608
10:47:36.037188,-8388608,-8388608,-8388608,-8388608,292469,-8388608,-8388608,-8388608
10:47:36.038853,-8388608,-8388608,-8388608,-8388608,326083,-8388608,-8388608,-8388608
10:47:36.038853,-8388608,-8388608,-8388608,-8388608,346794,-8388608,-8388608,-8388608
10:47:36.038853,-8388608,-8388608,-8388608,-8388608,324800,-8388608,-8388608,-8388608
10:47:36.038853,-8388608,-8388608,-8388608,-8388608,295144,-8388608,-8388608,-8388608
10:47:36.054942,-8388608,-8388608,-8388608,-8388608,297455,-8388608,-8388608,-8388608
10:47:36.059414,-8388608,-8388608,-8388608,-8388608,322598,-8388608,-8388608,-8388608
10:47:36.060842,-8388608,-8388608,-8388608,-8388608,345683,-8388608,-8388608,-8388608
10:47:36.060842,-8388608,-8388608,-8388608,-8388608,321968,-8388608,-8388608,-8388608
10:47:36.071611,-8388608,-8388608,-8388608,-8388608,291300,-8388608,-8388608,-8388608
10:47:36.071611,-8388608,-8388608,-8388608,-8388608,297025,-8388608,-8388608,-8388608
10:47:36.071611,-8388608,-8388608,-8388608,-8388608,326224,-8388608,-8388608,-8388608
10:47:36.071611,-8388608,-8388608,-8388608,-8388608,343312,-8388608,-8388608,-8388608
10:47:36.088613,-8388608,-8388608,-8388608,-8388608,320039,-8388608,-8388608,-8388608
10:47:36.088613,-8388608,-8388608,-8388608,-8388608,284178,-8388608,-8388608,-8388608
10:47:36.088613,-8388608,-8388608,-8388608,-8388608,289026,-8388608,-8388608,-8388608
10:47:36.096626,-8388608,-8388608,-8388608,-8388608,325641,-8388608,-8388608,-8388608
10:47:36.121308,-8388608,-8388608,-8388608,-8388608,341903,-8388608,-8388608,-8388608
10:47:36.126607,-8388608,-8388608,-8388608,-8388608,319918,-8388608,-8388608,-8388608
10:47:36.130719,-8388608,-8388608,-8388608,-8388608,295394,-8388608,-8388608,-8388608
10:47:36.134095,-8388608,-8388608,-8388608,-8388608,294883,-8388608,-8388608,-8388608
10:47:36.135900,-8388608,-8388608,-8388608,-8388608,326937,-8388608,-8388608,-8388608
10:47:36.137934,-8388608,-8388608,-8388608,-8388608,345918,-8388608,-8388608,-8388608
10:47:36.137934,-8388608,-8388608,-8388608,-8388608,323597,-8388608,-8388608,-8388608
10:47:36.137934,-8388608,-8388608,-8388608,-8388608,289102,-8388608,-8388608,-8388608
10:47:36.137934,-8388608,-8388608,-8388608,-8388608,288734,-8388608,-8388608,-8388608
10:47:36.153608,-8388608,-8388608,-8388608,-8388608,325141,-8388608,-8388608,-8388608
10:47:36.155830,-8388608,-8388608,-8388608,-8388608,344295,-8388608,-8388608,-8388608
10:47:36.159573,-8388608,-8388608,-8388608,-8388608,319848,-8388608,-8388608,-8388608
10:47:36.161063,-8388608,-8388608,-8388608,-8388608,286433,-8388608,-8388608,-8388608
10:47:36.161063,-8388608,-8388608,-8388608,-8388608,289575,-8388608,-8388608,-8388608
10:47:36.170297,-8388608,-8388608,-8388608,-8388608,320549,-8388608,-8388608,-8388608
10:47:36.171578,-8388608,-8388608,-8388608,-8388608,338123,-8388608,-8388608,-8388608
10:47:36.171578,-8388608,-8388608,-8388608,-8388608,317530,-8388608,-8388608,-8388608
10:47:36.171578,-8388608,-8388608,-8388608,-8388608,278611,-8388608,-8388608,-8388608
10:47:36.171578,-8388608,-8388608,-8388608,-8388608,279376,-8388608,-8388608,-8388608
10:47:36.171578,-8388608,-8388608,-8388608,-8388608,327073,-8388608,-8388608,-8388608
10:47:36.188306,-8388608,-8388608,-8388608,-8388608,342820,-8388608,-8388608,-8388608
10:47:36.188306,-8388608,-8388608,-8388608,-8388608,317172,-8388608,-8388608,-8388608
10:47:36.188306,-8388608,-8388608,-8388608,-8388608,280224,-8388608,-8388608,-8388608
10:47:36.196819,-8388608,-8388608,-8388608,-8388608,283021,-8388608,-8388608,-8388608
10:47:36.196819,-8388608,-8388608,-8388608,-8388608,318694,-8388608,-8388608,-8388608
10:47:36.206594,-8388608,-8388608,-8388608,-8388608,337303,-8388608,-8388608,-8388608
10:47:36.206594,-8388608,-8388608,-8388608,-8388608,318540,-8388608,-8388608,-8388608
10:47:36.206594,-8388608,-8388608,-8388608,-8388608,287071,-8388608,-8388608,-8388608
10:47:36.206594,-8388608,-8388608,-8388608,-8388608,284878,-8388608,-8388608,-8388608
10:47:36.220352,-8388608,-8388608,-8388608,-8388608,316919,-8388608,-8388608,-8388608
10:47:36.221869,-8388608,-8388608,-8388608,-8388608,335443,-8388608,-8388608,-8388608
10:47:36.221869,-8388608,-8388608,-8388608,-8388608,315409,-8388608,-8388608,-8388608
10:47:36.221869,-8388608,-8388608,-8388608,-8388608,285029,-8388608,-8388608,-8388608
10:47:36.221869,-8388608,-8388608,-8388608,-8388608,285063,-8388608,-8388608,-8388608
10:47:36.238370,-8388608,-8388608,-8388608,-8388608,316600,-8388608,-8388608,-8388608
10:47:36.238370,-8388608,-8388608,-8388608,-8388608,337476,-8388608,-8388608,-8388608
10:47:36.238370,-8388608,-8388608,-8388608,-8388608,320449,-8388608,-8388608,-8388608
10:47:36.238370,-8388608,-8388608,-8388608,-8388608,288234,-8388608,-8388608,-8388608
10:47:36.255746,-8388608,-8388608,-8388608,-8388608,284035,-8388608,-8388608,-8388608
10:47:36.259745,-8388608,-8388608,-8388608,-8388608,314220,-8388608,-8388608,-8388608
10:47:36.260136,-8388608,-8388608,-8388608,-8388608,335278,-8388608,-8388608,-8388608
10:47:36.260136,-8388608,-8388608,-8388608,-8388608,320978,-8388608,-8388608,-8388608
10:47:36.271259,-8388608,-8388608,-8388608,-8388608,287362,-8388608,-8388608,-8388608
10:47:36.271259,-8388608,-8388608,-8388608,-8388608,289398,-8388608,-8388608,-8388608
10:47:36.271259,-8388608,-8388608,-8388608,-8388608,317814,-8388608,-8388608,-8388608
10:47:36.286268,-8388608,-8388608,-8388608,-8388608,338382,-8388608,-8388608,-8388608
10:47:36.288135,-8388608,-8388608,-8388608,-8388608,318403,-8388608,-8388608,-8388608
10:47:36.288135,-8388608,-8388608,-8388608,-8388608,282608,-8388608,-8388608,-8388608
10:47:36.297144,-8388608,-8388608,-8388608,-8388608,285420,-8388608,-8388608,-8388608
10:47:36.297144,-8388608,-8388608,-8388608,-8388608,323406,-8388608,-8388608,-8388608
10:47:36.304705,-8388608,-8388608,-8388608,-8388608,337571,-8388608,-8388608,-8388608
10:47:36.304705,-8388608,-8388608,-8388608,-8388608,311579,-8388608,-8388608,-8388608
10:47:36.304705,-8388608,-8388608,-8388608,-8388608,273969,-8388608,-8388608,-8388608
10:47:36.304705,-8388608,-8388608,-8388608,-8388608,256771,-8388608,-8388608,-8388608
10:47:36.304705,-8388608,-8388608,-8388608,-8388608,273887,-8388608,-8388608,-8388608
10:47:36.321710,-8388608,-8388608,-8388608,-8388608,287444,-8388608,-8388608,-8388608
10:47:36.326378,-8388608,-8388608,-8388608,-8388608,264053,-8388608,-8388608,-8388608
10:47:36.328573,-8388608,-8388608,-8388608,-8388608,237799,-8388608,-8388608,-8388608
10:47:36.328573,-8388608,-8388608,-8388608,-8388608,249662,-8388608,-8388608,-8388608
10:47:36.339834,-8388608,-8388608,-8388608,-8388608,303089,-8388608,-8388608,-8388608
10:47:36.343844,-8388608,-8388608,-8388608,-8388608,349613,-8388608,-8388608,-8388608
10:47:36.348097,-8388608,-8388608,-8388608,-8388608,335160,-8388608,-8388608,-8388608
10:47:36.352234,-8388608,-8388608,-8388608,-8388608,295049,-8388608,-8388608,-8388608
10:47:36.356841,-8388608,-8388608,-8388608,-8388608,286174,-8388608,-8388608,-8388608
10:47:36.358302,-8388608,-8388608,-8388608,-8388608,316113,-8388608,-8388608,-8388608
10:47:36.358302,-8388608,-8388608,-8388608,-8388608,336011,-8388608,-8388608,-8388608
10:47:36.358302,-8388608,-8388608,-8388608,-8388608,314123,-8388608,-8388608,-8388608
10:47:36.371170,-8388608,-8388608,-8388608,-8388608,276831,-8388608,-8388608,-8388608
10:47:36.371170,-8388608,-8388608,-8388608,-8388608,276752,-8388608,-8388608,-8388608
10:47:36.371170,-8388608,-8388608,-8388608,-8388608,311631,-8388608,-8388608,-8388608
10:47:36.371170,-8388608,-8388608,-8388608,-8388608,333981,-8388608,-8388608,-8388608
10:47:36.386780,-8388608,-8388608,-8388608,-8388608,312299,-8388608,-8388608,-8388608
10:47:36.387966,-8388608,-8388608,-8388608,-8388608,279164,-8388608,-8388608,-8388608
10:47:36.387966,-8388608,-8388608,-8388608,-8388608,277950,-8388608,-8388608,-8388608
10:47:36.397477,-8388608,-8388608,-8388608,-8388608,308627,-8388608,-8388608,-8388608
10:47:36.403485,-8388608,-8388608,-8388608,-8388608,329134,-8388608,-8388608,-8388608
10:47:36.405073,-8388608,-8388608,-8388608,-8388608,306101,-8388608,-8388608,-8388608
10:47:36.405073,-8388608,-8388608,-8388608,-8388608,274621,-8388608,-8388608,-8388608
10:47:36.405073,-8388608,-8388608,-8388608,-8388608,278532,-8388608,-8388608,-8388608
10:47:36.420269,-8388608,-8388608,-8388608,-8388608,313889,-8388608,-8388608,-8388608
10:47:36.421720,-8388608,-8388608,-8388608,-8388608,331024,-8388608,-8388608,-8388608
10:47:36.421720,-8388608,-8388608,-8388608,-8388608,307655,-8388608,-8388608,-8388608
10:47:36.421720,-8388608,-8388608,-8388608,-8388608,274193,-8388608,-8388608,-8388608
10:47:36.421720,-8388608,-8388608,-8388608,-8388608,273841,-8388608,-8388608,-8388608
10:47:36.438318,-8388608,-8388608,-8388608,-8388608,304683,-8388608,-8388608,-8388608
10:47:36.438318,-8388608,-8388608,-8388608,-8388608,319705,-8388608,-8388608,-8388608
10:47:36.438318,-8388608,-8388608,-8388608,-8388608,300574,-8388608,-8388608,-8388608
10:47:36.438318,-8388608,-8388608,-8388608,-8388608,274693,-8388608,-8388608,-8388608
10:47:36.455112,-8388608,-8388608,-8388608,-8388608,272079,-8388608,-8388608,-8388608
10:47:36.455112,-8388608,-8388608,-8388608,-8388608,307557,-8388608,-8388608,-8388608
10:47:36.455112,-8388608,-8388608,-8388608,-8388608,321126,-8388608,-8388608,-8388608
10:47:36.455112,-8388608,-8388608,-8388608,-8388608,299524,-8388608,-8388608,-8388608
10:47:36.470264,-8388608,-8388608,-8388608,-8388608,267501,-8388608,-8388608,-8388608
10:47:36.474268,-8388608,-8388608,-8388608,-8388608,265016,-8388608,-8388608,-8388608
10:47:36.476741,-8388608,-8388608,-8388608,-8388608,299323,-8388608,-8388608,-8388608
10:47:36.476741,-8388608,-8388608,-8388608,-8388608,321621,-8388608,-8388608,-8388608
10:47:36.487834,-8388608,-8388608,-8388608,-8388608,305989,-8388608,-8388608,-8388608
10:47:36.487834,-8388608,-8388608,-8388608,-8388608,274268,-8388608,-8388608,-8388608
10:47:36.487834,-8388608,-8388608,-8388608,-8388608,267245,-8388608,-8388608,-8388608
10:47:36.497953,-8388608,-8388608,-8388608,-8388608,291504,-8388608,-8388608,-8388608
10:47:36.503334,-8388608,-8388608,-8388608,-8388608,309178,-8388608,-8388608,-8388608
10:47:36.505333,-8388608,-8388608,-8388608,-8388608,296097,-8388608,-8388608,-8388608
10:47:36.505333,-8388608,-8388608,-8388608,-8388608,265771,-8388608,-8388608,-8388608
10:47:36.505333,-8388608,-8388608,-8388608,-8388608,264748,-8388608,-8388608,-8388608
10:47:36.520114,-8388608,-8388608,-8388608,-8388608,292329,-8388608,-8388608,-8388608
10:47:36.521010,-8388608,-8388608,-8388608,-8388608,307344,-8388608,-8388608,-8388608
10:47:36.528037,-8388608,-8388608,-8388608,-8388608,287229,-8388608,-8388608,-8388608
10:47:36.528037,-8388608,-8388608,-8388608,-8388608,256654,-8388608,-8388608,-8388608
