10:43:39.649394,-8388608,-8388608,-8388608,-8388608,458351,-8388608,-8388608,-8388608
10:43:39.649394,-8388608,-8388608,-8388608,-8388608,457035,-8388608,-8388608,-8388608
10:43:39.661398,-8388608,-8388608,-8388608,-8388608,456012,-8388608,-8388608,-8388608
10:43:39.661398,-8388608,-8388608,-8388608,-8388608,457292,-8388608,-8388608,-8388608
10:43:39.661398,-8388608,-8388608,-8388608,-8388608,460049,-8388608,-8388608,-8388608
10:43:39.661398,-8388608,-8388608,-8388608,-8388608,463182,-8388608,-8388608,-8388608
10:43:39.677935,-8388608,-8388608,-8388608,-8388608,460273,-8388608,-8388608,-8388608
10:43:39.677935,-8388608,-8388608,-8388608,-8388608,457676,-8388608,-8388608,-8388608
10:43:39.677935,-8388608,-8388608,-8388608,-8388608,460681,-8388608,-8388608,-8388608
10:43:39.677935,-8388608,-8388608,-8388608,-8388608,463502,-8388608,-8388608,-8388608
10:43:39.694236,-8388608,-8388608,-8388608,-8388608,462090,-8388608,-8388608,-8388608
10:43:39.697230,-8388608,-8388608,-8388608,-8388608,459021,-8388608,-8388608,-8388608
10:43:39.700110,-8388608,-8388608,-8388608,-8388608,459516,-8388608,-8388608,-8388608
10:43:39.700110,-8388608,-8388608,-8388608,-8388608,459977,-8388608,-8388608,-8388608
10:43:39.709647,-8388608,-8388608,-8388608,-8388608,461152,-8388608,-8388608,-8388608
10:43:39.710587,-8388608,-8388608,-8388608,-8388608,463696,-8388608,-8388608,-8388608
10:43:39.710587,-8388608,-8388608,-8388608,-8388608,461561,-8388608,-8388608,-8388608
10:43:39.710587,-8388608,-8388608,-8388608,-8388608,460599,-8388608,-8388608,-8388608
10:43:39.725595,-8388608,-8388608,-8388608,-8388608,461478,-8388608,-8388608,-8388608
10:43:39.727790,-8388608,-8388608,-8388608,-8388608,465472,-8388608,-8388608,-8388608
10:43:39.727790,-8388608,-8388608,-8388608,-8388608,462656,-8388608,-8388608,-8388608
10:43:39.727790,-8388608,-8388608,-8388608,-8388608,456124,-8388608,-8388608,-8388608
10:43:39.727790,-8388608,-8388608,-8388608,-8388608,455621,-8388608,-8388608,-8388608
10:43:39.744708,-8388608,-8388608,-8388608,-8388608,458588,-8388608,-8388608,-8388608
10:43:39.749719,-8388608,-8388608,-8388608,-8388608,457721,-8388608,-8388608,-8388608
10:43:39.749719,-8388608,-8388608,-8388608,-8388608,449560,-8388608,-8388608,-8388608
10:43:39.749719,-8388608,-8388608,-8388608,-8388608,437658,-8388608,-8388608,-8388608
10:43:39.761290,-8388608,-8388608,-8388608,-8388608,427067,-8388608,-8388608,-8388608
10:43:39.761290,-8388608,-8388608,-8388608,-8388608,422601,-8388608,-8388608,-8388608
10:43:39.761290,-8388608,-8388608,-8388608,-8388608,422814,-8388608,-8388608,-8388608
10:43:39.761290,-8388608,-8388608,-8388608,-8388608,430990,-8388608,-8388608,-8388608
10:43:39.778913,-8388608,-8388608,-8388608,-8388608,443074,-8388608,-8388608,-8388608
10:43:39.778913,-8388608,-8388608,-8388608,-8388608,456496,-8388608,-8388608,-8388608
10:43:39.778913,-8388608,-8388608,-8388608,-8388608,468254,-8388608,-8388608,-8388608
10:43:39.778913,-8388608,-8388608,-8388608,-8388608,470516,-8388608,-8388608,-8388608
10:43:39.793420,-8388608,-8388608,-8388608,-8388608,468321,-8388608,-8388608,-8388608
10:43:39.797236,-8388608,-8388608,-8388608,-8388608,464429,-8388608,-8388608,-8388608
10:43:39.797236,-8388608,-8388608,-8388608,-8388608,460514,-8388608,-8388608,-8388608
10:43:39.797236,-8388608,-8388608,-8388608,-8388608,460056,-8388608,-8388608,-8388608
10:43:39.797236,-8388608,-8388608,-8388608,-8388608,459565,-8388608,-8388608,-8388608
10:43:39.810884,-8388608,-8388608,-8388608,-8388608,458918,-8388608,-8388608,-8388608
10:43:39.810884,-8388608,-8388608,-8388608,-8388608,459154,-8388608,-8388608,-8388608
10:43:39.810884,-8388608,-8388608,-8388608,-8388608,456228,-8388608,-8388608,-8388608
10:43:39.810884,-8388608,-8388608,-8388608,-8388608,456232,-8388608,-8388608,-8388608
10:43:39.827686,-8388608,-8388608,-8388608,-8388608,460656,-8388608,-8388608,-8388608
10:43:39.827686,-8388608,-8388608,-8388608,-8388608,461627,-8388608,-8388608,-8388608
10:43:39.827686,-8388608,-8388608,-8388608,-8388608,457834,-8388608,-8388608,-8388608
10:43:39.827686,-8388608,-8388608,-8388608,-8388608,451077,-8388608,-8388608,-8388608
10:43:39.844499,-8388608,-8388608,-8388608,-8388608,451204,-8388608,-8388608,-8388608
10:43:39.844499,-8388608,-8388608,-8388608,-8388608,458344,-8388608,-8388608,-8388608
10:43:39.850050,-8388608,-8388608,-8388608,-8388608,462152,-8388608,-8388608,-8388608
10:43:39.850050,-8388608,-8388608,-8388608,-8388608,458078,-8388608,-8388608,-8388608
10:43:39.861252,-8388608,-8388608,-8388608,-8388608,455303,-8388608,-8388608,-8388608
10:43:39.861252,-8388608,-8388608,-8388608,-8388608,455497,-8388608,-8388608,-8388608
10:43:39.861252,-8388608,-8388608,-8388608,-8388608,458491,-8388608,-8388608,-8388608
10:43:39.861252,-8388608,-8388608,-8388608,-8388608,459370,-8388608,-8388608,-8388608
10:43:39.877322,-8388608,-8388608,-8388608,-8388608,456324,-8388608,-8388608,-8388608
10:43:39.881854,-8388608,-8388608,-8388608,-8388608,453356,-8388608,-8388608,-8388608
10:43:39.882592,-8388608,-8388608,-8388608,-8388608,454208,-8388608,-8388608,-8388608
10:43:39.882592,-8388608,-8388608,-8388608,-8388608,455634,-8388608,-8388608,-8388608
10:43:39.893891,-8388608,-8388608,-8388608,-8388608,456796,-8388608,-8388608,-8388608
10:43:39.897911,-8388608,-8388608,-8388608,-8388608,451696,-8388608,-8388608,-8388608
10:43:39.901604,-8388608,-8388608,-8388608,-8388608,450201,-8388608,-8388608,-8388608
10:43:39.901604,-8388608,-8388608,-8388608,-8388608,452891,-8388608,-8388608,-8388608
10:43:39.901604,-8388608,-8388608,-8388608,-8388608,454913,-8388608,-8388608,-8388608
10:43:39.914210,-8388608,-8388608,-8388608,-8388608,453034,-8388608,-8388608,-8388608
10:43:39.915628,-8388608,-8388608,-8388608,-8388608,449283,-8388608,-8388608,-8388608
10:43:39.915628,-8388608,-8388608,-8388608,-8388608,448882,-8388608,-8388608,-8388608
10:43:39.915628,-8388608,-8388608,-8388608,-8388608,450120,-8388608,-8388608,-8388608
10:43:39.929236,-8388608,-8388608,-8388608,-8388608,450298,-8388608,-8388608,-8388608
10:43:39.933178,-8388608,-8388608,-8388608,-8388608,451443,-8388608,-8388608,-8388608
10:43:39.933178,-8388608,-8388608,-8388608,-8388608,450452,-8388608,-8388608,-8388608
10:43:39.942786,-8388608,-8388608,-8388608,-8388608,449230,-8388608,-8388608,-8388608
10:43:39.946874,-8388608,-8388608,-8388608,-8388608,450859,-8388608,-8388608,-8388608
10:43:39.950112,-8388608,-8388608,-8388608,-8388608,451349,-8388608,-8388608,-8388608
10:43:39.950112,-8388608,-8388608,-8388608,-8388608,449676,-8388608,-8388608,-8388608
10:43:39.950112,-8388608,-8388608,-8388608,-8388608,445801,-8388608,-8388608,-8388608
10:43:39.961620,-8388608,-8388608,-8388608,-8388608,442733,-8388608,-8388608,-8388608
10:43:39.964622,-8388608,-8388608,-8388608,-8388608,443138,-8388608,-8388608,-8388608
10:43:39.966636,-8388608,-8388608,-8388608,-8388608,442349,-8388608,-8388608,-8388608
10:43:39.966636,-8388608,-8388608,-8388608,-8388608,442935,-8388608,-8388608,-8388608
10:43:39.978213,-8388608,-8388608,-8388608,-8388608,441061,-8388608,-8388608,-8388608
10:43:39.981166,-8388608,-8388608,-8388608,-8388608,437701,-8388608,-8388608,-8388608
10:43:39.983587,-8388608,-8388608,-8388608,-8388608,439104,-8388608,-8388608,-8388608
10:43:39.983587,-8388608,-8388608,-8388608,-8388608,443701,-8388608,-8388608,-8388608
10:43:39.992700,-8388608,-8388608,-8388608,-8388608,441744,-8388608,-8388608,-8388608
10:43:39.996741,-8388608,-8388608,-8388608,-8388608,439103,-8388608,-8388608,-8388608
10:43:40.000157,-8388608,-8388608,-8388608,-8388608,436656,-8388608,-8388608,-8388608
10:43:40.000157,-8388608,-8388608,-8388608,-8388608,437156,-8388608,-8388608,-8388608
10:43:40.009554,-8388608,-8388608,-8388608,-8388608,441042,-8388608,-8388608,-8388608
10:43:40.013558,-8388608,-8388608,-8388608,-8388608,441819,-8388608,-8388608,-8388608
10:43:40.015816,-8388608,-8388608,-8388608,-8388608,438368,-8388608,-8388608,-8388608
10:43:40.015816,-8388608,-8388608,-8388608,-8388608,437582,-8388608,-8388608,-8388608
10:43:40.015816,-8388608,-8388608,-8388608,-8388608,438729,-8388608,-8388608,-8388608
10:43:40.030159,-8388608,-8388608,-8388608,-8388608,441218,-8388608,-8388608,-8388608
10:43:40.032304,-8388608,-8388608,-8388608,-8388608,442176,-8388608,-8388608,-8388608
10:43:40.032304,-8388608,-8388608,-8388608,-8388608,442826,-8388608,-8388608,-8388608
10:43:40.032304,-8388608,-8388608,-8388608,-8388608,443919,-8388608,-8388608,-8388608
10:43:40.044912,-8388608,-8388608,-8388608,-8388608,445160,-8388608,-8388608,-8388608
10:43:40.049236,-8388608,-8388608,-8388608,-8388608,448874,-8388608,-8388608,-8388608
10:43:40.050237,-8388608,-8388608,-8388608,-8388608,451073,-8388608,-8388608,-8388608
10:43:40.050237,-8388608,-8388608,-8388608,-8388608,450276,-8388608,-8388608,-8388608
10:43:40.061400,-8388608,-8388608,-8388608,-8388608,448208,-8388608,-8388608,-8388608
10:43:40.065375,-8388608,-8388608,-8388608,-8388608,450092,-8388608,-8388608,-8388608
10:43:40.065375,-8388608,-8388608,-8388608,-8388608,453672,-8388608,-8388608,-8388608
10:43:40.065375,-8388608,-8388608,-8388608,-8388608,454857,-8388608,-8388608,-8388608
10:43:40.077194,-8388608,-8388608,-8388608,-8388608,451896,-8388608,-8388608,-8388608
10:43:40.080791,-8388608,-8388608,-8388608,-8388608,449846,-8388608,-8388608,-8388608
10:43:40.082537,-8388608,-8388608,-8388608,-8388608,451422,-8388608,-8388608,-8388608
10:43:40.082537,-8388608,-8388608,-8388608,-8388608,455066,-8388608,-8388608,-8388608
10:43:40.092780,-8388608,-8388608,-8388608,-8388608,455928,-8388608,-8388608,-8388608
10:43:40.096786,-8388608,-8388608,-8388608,-8388608,454870,-8388608,-8388608,-8388608
10:43:40.100086,-8388608,-8388608,-8388608,-8388608,452881,-8388608,-8388608,-8388608
10:43:40.100086,-8388608,-8388608,-8388608,-8388608,455036,-8388608,-8388608,-8388608
10:43:40.111347,-8388608,-8388608,-8388608,-8388608,459422,-8388608,-8388608,-8388608
10:43:40.114346,-8388608,-8388608,-8388608,-8388608,458350,-8388608,-8388608,-8388608
10:43:40.116417,-8388608,-8388608,-8388608,-8388608,455393,-8388608,-8388608,-8388608
10:43:40.116417,-8388608,-8388608,-8388608,-8388608,453278,-8388608,-8388608,-8388608
10:43:40.116417,-8388608,-8388608,-8388608,-8388608,453007,-8388608,-8388608,-8388608
10:43:40.128924,-8388608,-8388608,-8388608,-8388608,458545,-8388608,-8388608,-8388608
10:43:40.131870,-8388608,-8388608,-8388608,-8388608,460364,-8388608,-8388608,-8388608
10:43:40.131870,-8388608,-8388608,-8388608,-8388608,458469,-8388608,-8388608,-8388608
10:43:40.131870,-8388608,-8388608,-8388608,-8388608,453564,-8388608,-8388608,-8388608
10:43:40.144660,-8388608,-8388608,-8388608,-8388608,452397,-8388608,-8388608,-8388608
10:43:40.148648,-8388608,-8388608,-8388608,-8388608,455544,-8388608,-8388608,-8388608
10:43:40.150605,-8388608,-8388608,-8388608,-8388608,457556,-8388608,-8388608,-8388608
10:43:40.150605,-8388608,-8388608,-8388608,-8388608,454599,-8388608,-8388608,-8388608
10:43:40.161241,-8388608,-8388608,-8388608,-8388608,453599,-8388608,-8388608,-8388608
10:43:40.165236,-8388608,-8388608,-8388608,-8388608,453563,-8388608,-8388608,-8388608
10:43:40.165954,-8388608,-8388608,-8388608,-8388608,453781,-8388608,-8388608,-8388608
10:43:40.165954,-8388608,-8388608,-8388608,-8388608,455606,-8388608,-8388608,-8388608
10:43:40.177847,-8388608,-8388608,-8388608,-8388608,453605,-8388608,-8388608,-8388608
10:43:40.180846,-8388608,-8388608,-8388608,-8388608,452943,-8388608,-8388608,-8388608
10:43:40.183378,-8388608,-8388608,-8388608,-8388608,453661,-8388608,-8388608,-8388608
10:43:40.183378,-8388608,-8388608,-8388608,-8388608,456991,-8388608,-8388608,-8388608
10:43:40.193563,-8388608,-8388608,-8388608,-8388608,456674,-8388608,-8388608,-8388608
10:43:40.197563,-8388608,-8388608,-8388608,-8388608,455368,-8388608,-8388608,-8388608
10:43:40.200356,-8388608,-8388608,-8388608,-8388608,452665,-8388608,-8388608,-8388608
10:43:40.200356,-8388608,-8388608,-8388608,-8388608,451911,-8388608,-8388608,-8388608
10:43:40.200356,-8388608,-8388608,-8388608,-8388608,454510,-8388608,-8388608,-8388608
10:43:40.213240,-8388608,-8388608,-8388608,-8388608,456399,-8388608,-8388608,-8388608
10:43:40.215816,-8388608,-8388608,-8388608,-8388608,454406,-8388608,-8388608,-8388608
10:43:40.215816,-8388608,-8388608,-8388608,-8388608,451866,-8388608,-8388608,-8388608
10:43:40.215816,-8388608,-8388608,-8388608,-8388608,452308,-8388608,-8388608,-8388608
10:43:40.227884,-8388608,-8388608,-8388608,-8388608,455724,-8388608,-8388608,-8388608
10:43:40.231880,-8388608,-8388608,-8388608,-8388608,458418,-8388608,-8388608,-8388608
10:43:40.234579,-8388608,-8388608,-8388608,-8388608,451891,-8388608,-8388608,-8388608
10:43:40.234579,-8388608,-8388608,-8388608,-8388608,449297,-8388608,-8388608,-8388608
10:43:40.245425,-8388608,-8388608,-8388608,-8388608,450784,-8388608,-8388608,-8388608
10:43:40.248346,-8388608,-8388608,-8388608,-8388608,455741,-8388608,-8388608,-8388608
10:43:40.250853,-8388608,-8388608,-8388608,-8388608,456247,-8388608,-8388608,-8388608
10:43:40.250853,-8388608,-8388608,-8388608,-8388608,452383,-8388608,-8388608,-8388608
10:43:40.262293,-8388608,-8388608,-8388608,-8388608,450320,-8388608,-8388608,-8388608
10:43:40.263640,-8388608,-8388608,-8388608,-8388608,451417,-8388608,-8388608,-8388608
10:43:40.263640,-8388608,-8388608,-8388608,-8388608,455438,-8388608,-8388608,-8388608
10:43:40.263640,-8388608,-8388608,-8388608,-8388608,455928,-8388608,-8388608,-8388608
10:43:40.277004,-8388608,-8388608,-8388608,-8388608,452665,-8388608,-8388608,-8388608
10:43:40.280040,-8388608,-8388608,-8388608,-8388608,450244,-8388608,-8388608,-8388608
10:43:40.282175,-8388608,-8388608,-8388608,-8388608,452252,-8388608,-8388608,-8388608
10:43:40.282175,-8388608,-8388608,-8388608,-8388608,456050,-8388608,-8388608,-8388608
10:43:40.292531,-8388608,-8388608,-8388608,-8388608,456141,-8388608,-8388608,-8388608
10:43:40.297534,-8388608,-8388608,-8388608,-8388608,452986,-8388608,-8388608,-8388608
10:43:40.299047,-8388608,-8388608,-8388608,-8388608,452497,-8388608,-8388608,-8388608
10:43:40.299047,-8388608,-8388608,-8388608,-8388608,452363,-8388608,-8388608,-8388608
10:43:40.299047,-8388608,-8388608,-8388608,-8388608,455025,-8388608,-8388608,-8388608
10:43:40.312271,-8388608,-8388608,-8388608,-8388608,456218,-8388608,-8388608,-8388608
10:43:40.315449,-8388608,-8388608,-8388608,-8388608,452799,-8388608,-8388608,-8388608
10:43:40.315449,-8388608,-8388608,-8388608,-8388608,450173,-8388608,-8388608,-8388608
10:43:40.325907,-8388608,-8388608,-8388608,-8388608,448640,-8388608,-8388608,-8388608
10:43:40.329912,-8388608,-8388608,-8388608,-8388608,454638,-8388608,-8388608,-8388608
10:43:40.330334,-8388608,-8388608,-8388608,-8388608,458511,-8388608,-8388608,-8388608
10:43:40.330334,-8388608,-8388608,-8388608,-8388608,453945,-8388608,-8388608,-8388608
10:43:40.330334,-8388608,-8388608,-8388608,-8388608,451693,-8388608,-8388608,-8388608
10:43:40.345749,-8388608,-8388608,-8388608,-8388608,452458,-8388608,-8388608,-8388608
10:43:40.348875,-8388608,-8388608,-8388608,-8388608,454716,-8388608,-8388608,-8388608
10:43:40.353108,-8388608,-8388608,-8388608,-8388608,455303,-8388608,-8388608,-8388608
10:43:40.357143,-8388608,-8388608,-8388608,-8388608,452433,-8388608,-8388608,-8388608
10:43:40.360987,-8388608,-8388608,-8388608,-8388608,451039,-8388608,-8388608,-8388608
10:43:40.360987,-8388608,-8388608,-8388608,-8388608,453726,-8388608,-8388608,-8388608
10:43:40.360987,-8388608,-8388608,-8388608,-8388608,454743,-8388608,-8388608,-8388608
10:43:40.360987,-8388608,-8388608,-8388608,-8388608,454785,-8388608,-8388608,-8388608
10:43:40.376987,-8388608,-8388608,-8388608,-8388608,452333,-8388608,-8388608,-8388608
10:43:40.380984,-8388608,-8388608,-8388608,-8388608,450094,-8388608,-8388608,-8388608
10:43:40.383539,-8388608,-8388608,-8388608,-8388608,449726,-8388608,-8388608,-8388608
10:43:40.383539,-8388608,-8388608,-8388608,-8388608,454313,-8388608,-8388608,-8388608
10:43:40.383539,-8388608,-8388608,-8388608,-8388608,456389,-8388608,-8388608,-8388608
10:43:40.396909,-8388608,-8388608,-8388608,-8388608,454268,-8388608,-8388608,-8388608
10:43:40.402203,-8388608,-8388608,-8388608,-8388608,450610,-8388608,-8388608,-8388608
10:43:40.405568,-8388608,-8388608,-8388608,-8388608,449854,-8388608,-8388608,-8388608
10:43:40.408711,-8388608,-8388608,-8388608,-8388608,453827,-8388608,-8388608,-8388608
10:43:40.412714,-8388608,-8388608,-8388608,-8388608,455968,-8388608,-8388608,-8388608
10:43:40.413959,-8388608,-8388608,-8388608,-8388608,452565,-8388608,-8388608,-8388608
10:43:40.413959,-8388608,-8388608,-8388608,-8388608,450546,-8388608,-8388608,-8388608
10:43:40.425775,-8388608,-8388608,-8388608,-8388608,453019,-8388608,-8388608,-8388608
10:43:40.426894,-8388608,-8388608,-8388608,-8388608,457648,-8388608,-8388608,-8388608
10:43:40.426894,-8388608,-8388608,-8388608,-8388608,457620,-8388608,-8388608,-8388608
10:43:40.426894,-8388608,-8388608,-8388608,-8388608,452998,-8388608,-8388608,-8388608
10:43:40.426894,-8388608,-8388608,-8388608,-8388608,449191,-8388608,-8388608,-8388608
10:43:40.443830,-8388608,-8388608,-8388608,-8388608,450066,-8388608,-8388608,-8388608
10:43:40.443830,-8388608,-8388608,-8388608,-8388608,452894,-8388608,-8388608,-8388608
10:43:40.450961,-8388608,-8388608,-8388608,-8388608,453910,-8388608,-8388608,-8388608
10:43:40.450961,-8388608,-8388608,-8388608,-8388608,451623,-8388608,-8388608,-8388608
10:43:40.460201,-8388608,-8388608,-8388608,-8388608,448393,-8388608,-8388608,-8388608
10:43:40.460493,-8388608,-8388608,-8388608,-8388608,451321,-8388608,-8388608,-8388608
10:43:40.460493,-8388608,-8388608,-8388608,-8388608,455490,-8388608,-8388608,-8388608
10:43:40.460493,-8388608,-8388608,-8388608,-8388608,455988,-8388608,-8388608,-8388608
10:43:40.477239,-8388608,-8388608,-8388608,-8388608,453198,-8388608,-8388608,-8388608
10:43:40.481166,-8388608,-8388608,-8388608,-8388608,447494,-8388608,-8388608,-8388608
10:43:40.481912,-8388608,-8388608,-8388608,-8388608,447429,-8388608,-8388608,-8388608
10:43:40.481912,-8388608,-8388608,-8388608,-8388608,450114,-8388608,-8388608,-8388608
10:43:40.492575,-8388608,-8388608,-8388608,-8388608,454543,-8388608,-8388608,-8388608
10:43:40.496658,-8388608,-8388608,-8388608,-8388608,452883,-8388608,-8388608,-8388608
10:43:40.499383,-8388608,-8388608,-8388608,-8388608,452578,-8388608,-8388608,-8388608
10:43:40.499383,-8388608,-8388608,-8388608,-8388608,451153,-8388608,-8388608,-8388608
10:43:40.509902,-8388608,-8388608,-8388608,-8388608,451053,-8388608,-8388608,-8388608
10:43:40.512901,-8388608,-8388608,-8388608,-8388608,448499,-8388608,-8388608,-8388608
10:43:40.516006,-8388608,-8388608,-8388608,-8388608,447524,-8388608,-8388608,-8388608
10:43:40.516006,-8388608,-8388608,-8388608,-8388608,450578,-8388608,-8388608,-8388608
10:43:40.516006,-8388608,-8388608,-8388608,-8388608,450511,-8388608,-8388608,-8388608
10:43:40.528568,-8388608,-8388608,-8388608,-8388608,452352,-8388608,-8388608,-8388608
10:43:40.531852,-8388608,-8388608,-8388608,-8388608,451823,-8388608,-8388608,-8388608
10:43:40.531852,-8388608,-8388608,-8388608,-8388608,449698,-8388608,-8388608,-8388608
10:43:40.531852,-8388608,-8388608,-8388608,-8388608,444902,-8388608,-8388608,-8388608
10:43:40.544308,-8388608,-8388608,-8388608,-8388608,442344,-8388608,-8388608,-8388608
10:43:40.548310,-8388608,-8388608,-8388608,-8388608,448495,-8388608,-8388608,-8388608
10:43:40.551183,-8388608,-8388608,-8388608,-8388608,449829,-8388608,-8388608,-8388608
10:43:40.551183,-8388608,-8388608,-8388608,-8388608,450433,-8388608,-8388608,-8388608
10:43:40.560956,-8388608,-8388608,-8388608,-8388608,447392,-8388608,-8388608,-8388608
10:43:40.563914,-8388608,-8388608,-8388608,-8388608,446858,-8388608,-8388608,-8388608
10:43:40.565174,-8388608,-8388608,-8388608,-8388608,451711,-8388608,-8388608,-8388608
10:43:40.565174,-8388608,-8388608,-8388608,-8388608,452313,-8388608,-8388608,-8388608
10:43:40.575619,-8388608,-8388608,-8388608,-8388608,451078,-8388608,-8388608,-8388608
10:43:40.580728,-8388608,-8388608,-8388608,-8388608,449949,-8388608,-8388608,-8388608
10:43:40.582313,-8388608,-8388608,-8388608,-8388608,450368,-8388608,-8388608,-8388608
10:43:40.582313,-8388608,-8388608,-8388608,-8388608,453413,-8388608,-8388608,-8388608
10:43:40.592268,-8388608,-8388608,-8388608,-8388608,455328,-8388608,-8388608,-8388608
10:43:40.596274,-8388608,-8388608,-8388608,-8388608,451154,-8388608,-8388608,-8388608
10:43:40.598681,-8388608,-8388608,-8388608,-8388608,449176,-8388608,-8388608,-8388608
10:43:40.598681,-8388608,-8388608,-8388608,-8388608,447201,-8388608,-8388608,-8388608
10:43:40.608979,-8388608,-8388608,-8388608,-8388608,450825,-8388608,-8388608,-8388608
10:43:40.612984,-8388608,-8388608,-8388608,-8388608,455399,-8388608,-8388608,-8388608
10:43:40.615391,-8388608,-8388608,-8388608,-8388608,455590,-8388608,-8388608,-8388608
10:43:40.615391,-8388608,-8388608,-8388608,-8388608,451821,-8388608,-8388608,-8388608
10:43:40.615391,-8388608,-8388608,-8388608,-8388608,452181,-8388608,-8388608,-8388608
10:43:40.627716,-8388608,-8388608,-8388608,-8388608,452979,-8388608,-8388608,-8388608
10:43:40.631681,-8388608,-8388608,-8388608,-8388608,454364,-8388608,-8388608,-8388608
10:43:40.632628,-8388608,-8388608,-8388608,-8388608,449941,-8388608,-8388608,-8388608
10:43:40.632628,-8388608,-8388608,-8388608,-8388608,448982,-8388608,-8388608,-8388608
10:43:40.645308,-8388608,-8388608,-8388608,-8388608,448313,-8388608,-8388608,-8388608
10:43:40.648308,-8388608,-8388608,-8388608,-8388608,442682,-8388608,-8388608,-8388608
10:43:40.651509,-8388608,-8388608,-8388608,-8388608,437707,-8388608,-8388608,-8388608
10:43:40.651509,-8388608,-8388608,-8388608,-8388608,426584,-8388608,-8388608,-8388608
10:43:40.661906,-8388608,-8388608,-8388608,-8388608,414067,-8388608,-8388608,-8388608
10:43:40.665803,-8388608,-8388608,-8388608,-8388608,410478,-8388608,-8388608,-8388608
10:43:40.665803,-8388608,-8388608,-8388608,-8388608,413130,-8388608,-8388608,-8388608
10:43:40.665803,-8388608,-8388608,-8388608,-8388608,424756,-8388608,-8388608,-8388608
10:43:40.675559,-8388608,-8388608,-8388608,-8388608,442201,-8388608,-8388608,-8388608
10:43:40.680564,-8388608,-8388608,-8388608,-8388608,456411,-8388608,-8388608,-8388608
10:43:40.681915,-8388608,-8388608,-8388608,-8388608,463009,-8388608,-8388608,-8388608
10:43:40.681915,-8388608,-8388608,-8388608,-8388608,462133,-8388608,-8388608,-8388608
10:43:40.692245,-8388608,-8388608,-8388608,-8388608,459396,-8388608,-8388608,-8388608
10:43:40.696813,-8388608,-8388608,-8388608,-8388608,455454,-8388608,-8388608,-8388608
10:43:40.696813,-8388608,-8388608,-8388608,-8388608,450586,-8388608,-8388608,-8388608
10:43:40.696813,-8388608,-8388608,-8388608,-8388608,448417,-8388608,-8388608,-8388608
10:43:40.696813,-8388608,-8388608,-8388608,-8388608,452836,-8388608,-8388608,-8388608
10:43:40.711940,-8388608,-8388608,-8388608,-8388608,453233,-8388608,-8388608,-8388608
10:43:40.715492,-8388608,-8388608,-8388608,-8388608,448256,-8388608,-8388608,-8388608
10:43:40.715492,-8388608,-8388608,-8388608,-8388608,447144,-8388608,-8388608,-8388608
10:43:40.715492,-8388608,-8388608,-8388608,-8388608,449236,-8388608,-8388608,-8388608
10:43:40.728125,-8388608,-8388608,-8388608,-8388608,453449,-8388608,-8388608,-8388608
10:43:40.732709,-8388608,-8388608,-8388608,-8388608,453518,-8388608,-8388608,-8388608
10:43:40.736690,-8388608,-8388608,-8388608,-8388608,450456,-8388608,-8388608,-8388608
10:43:40.740129,-8388608,-8388608,-8388608,-8388608,446651,-8388608,-8388608,-8388608
10:43:40.744567,-8388608,-8388608,-8388608,-8388608,449114,-8388608,-8388608,-8388608
10:43:40.748737,-8388608,-8388608,-8388608,-8388608,450657,-8388608,-8388608,-8388608
10:43:40.754757,-8388608,-8388608,-8388608,-8388608,450999,-8388608,-8388608,-8388608
10:43:40.757918,-8388608,-8388608,-8388608,-8388608,446776,-8388608,-8388608,-8388608
10:43:40.760385,-8388608,-8388608,-8388608,-8388608,445055,-8388608,-8388608,-8388608
10:43:40.760385,-8388608,-8388608,-8388608,-8388608,446228,-8388608,-8388608,-8388608
10:43:40.760385,-8388608,-8388608,-8388608,-8388608,448525,-8388608,-8388608,-8388608
10:43:40.760385,-8388608,-8388608,-8388608,-8388608,450036,-8388608,-8388608,-8388608
10:43:40.776771,-8388608,-8388608,-8388608,-8388608,448551,-8388608,-8388608,-8388608
10:43:40.777255,-8388608,-8388608,-8388608,-8388608,444849,-8388608,-8388608,-8388608
10:43:40.777255,-8388608,-8388608,-8388608,-8388608,444759,-8388608,-8388608,-8388608
10:43:40.777255,-8388608,-8388608,-8388608,-8388608,446116,-8388608,-8388608,-8388608
10:43:40.792325,-8388608,-8388608,-8388608,-8388608,445816,-8388608,-8388608,-8388608
10:43:40.793846,-8388608,-8388608,-8388608,-8388608,447354,-8388608,-8388608,-8388608
10:43:40.793846,-8388608,-8388608,-8388608,-8388608,445414,-8388608,-8388608,-8388608
10:43:40.793846,-8388608,-8388608,-8388608,-8388608,444041,-8388608,-8388608,-8388608
10:43:40.808802,-8388608,-8388608,-8388608,-8388608,446540,-8388608,-8388608,-8388608
10:43:40.810951,-8388608,-8388608,-8388608,-8388608,447254,-8388608,-8388608,-8388608
10:43:40.810951,-8388608,-8388608,-8388608,-8388608,445427,-8388608,-8388608,-8388608
10:43:40.810951,-8388608,-8388608,-8388608,-8388608,442357,-8388608,-8388608,-8388608
10:43:40.810951,-8388608,-8388608,-8388608,-8388608,440804,-8388608,-8388608,-8388608
10:43:40.829427,-8388608,-8388608,-8388608,-8388608,440965,-8388608,-8388608,-8388608
10:43:40.830814,-8388608,-8388608,-8388608,-8388608,442939,-8388608,-8388608,-8388608
10:43:40.830814,-8388608,-8388608,-8388608,-8388608,442248,-8388608,-8388608,-8388608
10:43:40.830814,-8388608,-8388608,-8388608,-8388608,438588,-8388608,-8388608,-8388608
10:43:40.843352,-8388608,-8388608,-8388608,-8388608,437517,-8388608,-8388608,-8388608
10:43:40.843352,-8388608,-8388608,-8388608,-8388608,440303,-8388608,-8388608,-8388608
10:43:40.851861,-8388608,-8388608,-8388608,-8388608,440433,-8388608,-8388608,-8388608
10:43:40.851861,-8388608,-8388608,-8388608,-8388608,437875,-8388608,-8388608,-8388608
10:43:40.860143,-8388608,-8388608,-8388608,-8388608,436050,-8388608,-8388608,-8388608
10:43:40.860143,-8388608,-8388608,-8388608,-8388608,432770,-8388608,-8388608,-8388608
10:43:40.860143,-8388608,-8388608,-8388608,-8388608,435938,-8388608,-8388608,-8388608
10:43:40.860143,-8388608,-8388608,-8388608,-8388608,437462,-8388608,-8388608,-8388608
10:43:40.875676,-8388608,-8388608,-8388608,-8388608,432401,-8388608,-8388608,-8388608
10:43:40.877359,-8388608,-8388608,-8388608,-8388608,428541,-8388608,-8388608,-8388608
10:43:40.877359,-8388608,-8388608,-8388608,-8388608,429986,-8388608,-8388608,-8388608
10:43:40.877359,-8388608,-8388608,-8388608,-8388608,432320,-8388608,-8388608,-8388608
10:43:40.891997,-8388608,-8388608,-8388608,-8388608,435618,-8388608,-8388608,-8388608
10:43:40.893525,-8388608,-8388608,-8388608,-8388608,432984,-8388608,-8388608,-8388608
10:43:40.893525,-8388608,-8388608,-8388608,-8388608,426794,-8388608,-8388608,-8388608
10:43:40.893525,-8388608,-8388608,-8388608,-8388608,427148,-8388608,-8388608,-8388608
10:43:40.908795,-8388608,-8388608,-8388608,-8388608,431300,-8388608,-8388608,-8388608
10:43:40.912908,-8388608,-8388608,-8388608,-8388608,434688,-8388608,-8388608,-8388608
10:43:40.915582,-8388608,-8388608,-8388608,-8388608,433075,-8388608,-8388608,-8388608
10:43:40.915582,-8388608,-8388608,-8388608,-8388608,430162,-8388608,-8388608,-8388608
10:43:40.915582,-8388608,-8388608,-8388608,-8388608,429992,-8388608,-8388608,-8388608
10:43:40.927365,-8388608,-8388608,-8388608,-8388608,433168,-8388608,-8388608,-8388608
10:43:40.931353,-8388608,-8388608,-8388608,-8388608,437475,-8388608,-8388608,-8388608
10:43:40.932479,-8388608,-8388608,-8388608,-8388608,438076,-8388608,-8388608,-8388608
10:43:40.932479,-8388608,-8388608,-8388608,-8388608,435323,-8388608,-8388608,-8388608
10:43:40.944139,-8388608,-8388608,-8388608,-8388608,435728,-8388608,-8388608,-8388608
10:43:40.947137,-8388608,-8388608,-8388608,-8388608,440153,-8388608,-8388608,-8388608
10:43:40.948537,-8388608,-8388608,-8388608,-8388608,444355,-8388608,-8388608,-8388608
10:43:40.952043,-8388608,-8388608,-8388608,-8388608,443429,-8388608,-8388608,-8388608
10:43:40.959742,-8388608,-8388608,-8388608,-8388608,441061,-8388608,-8388608,-8388608
10:43:40.964738,-8388608,-8388608,-8388608,-8388608,442352,-8388608,-8388608,-8388608
10:43:40.965141,-8388608,-8388608,-8388608,-8388608,444747,-8388608,-8388608,-8388608
10:43:40.965141,-8388608,-8388608,-8388608,-8388608,447966,-8388608,-8388608,-8388608
10:43:40.975259,-8388608,-8388608,-8388608,-8388608,447117,-8388608,-8388608,-8388608
10:43:40.979262,-8388608,-8388608,-8388608,-8388608,443902,-8388608,-8388608,-8388608
10:43:40.981398,-8388608,-8388608,-8388608,-8388608,444795,-8388608,-8388608,-8388608
10:43:40.981398,-8388608,-8388608,-8388608,-8388608,447081,-8388608,-8388608,-8388608
10:43:40.992037,-8388608,-8388608,-8388608,-8388608,449900,-8388608,-8388608,-8388608
10:43:40.996054,-8388608,-8388608,-8388608,-8388608,450126,-8388608,-8388608,-8388608
10:43:40.998337,-8388608,-8388608,-8388608,-8388608,446593,-8388608,-8388608,-8388608
10:43:40.998337,-8388608,-8388608,-8388608,-8388608,446197,-8388608,-8388608,-8388608
10:43:40.998337,-8388608,-8388608,-8388608,-8388608,448627,-8388608,-8388608,-8388608
10:43:41.011616,-8388608,-8388608,-8388608,-8388608,451340,-8388608,-8388608,-8388608
10:43:41.015108,-8388608,-8388608,-8388608,-8388608,450303,-8388608,-8388608,-8388608
10:43:41.016923,-8388608,-8388608,-8388608,-8388608,446391,-8388608,-8388608,-8388608
10:43:41.016923,-8388608,-8388608,-8388608,-8388608,444594,-8388608,-8388608,-8388608
10:43:41.027307,-8388608,-8388608,-8388608,-8388608,447227,-8388608,-8388608,-8388608
10:43:41.031306,-8388608,-8388608,-8388608,-8388608,448891,-8388608,-8388608,-8388608
10:43:41.031990,-8388608,-8388608,-8388608,-8388608,448656,-8388608,-8388608,-8388608
10:43:41.031990,-8388608,-8388608,-8388608,-8388608,445633,-8388608,-8388608,-8388608
10:43:41.044098,-8388608,-8388608,-8388608,-8388608,445896,-8388608,-8388608,-8388608
10:43:41.047994,-8388608,-8388608,-8388608,-8388608,450340,-8388608,-8388608,-8388608
10:43:41.052421,-8388608,-8388608,-8388608,-8388608,451833,-8388608,-8388608,-8388608
10:43:41.052421,-8388608,-8388608,-8388608,-8388608,449776,-8388608,-8388608,-8388608
10:43:41.060478,-8388608,-8388608,-8388608,-8388608,446923,-8388608,-8388608,-8388608
10:43:41.064954,-8388608,-8388608,-8388608,-8388608,444933,-8388608,-8388608,-8388608
10:43:41.064954,-8388608,-8388608,-8388608,-8388608,448916,-8388608,-8388608,-8388608
10:43:41.064954,-8388608,-8388608,-8388608,-8388608,450776,-8388608,-8388608,-8388608
10:43:41.075276,-8388608,-8388608,-8388608,-8388608,449185,-8388608,-8388608,-8388608
10:43:41.079635,-8388608,-8388608,-8388608,-8388608,445924,-8388608,-8388608,-8388608
10:43:41.079635,-8388608,-8388608,-8388608,-8388608,444945,-8388608,-8388608,-8388608
10:43:41.079635,-8388608,-8388608,-8388608,-8388608,447224,-8388608,-8388608,-8388608
10:43:41.091966,-8388608,-8388608,-8388608,-8388608,448536,-8388608,-8388608,-8388608
10:43:41.095828,-8388608,-8388608,-8388608,-8388608,446417,-8388608,-8388608,-8388608
10:43:41.100190,-8388608,-8388608,-8388608,-8388608,443981,-8388608,-8388608,-8388608
10:43:41.104201,-8388608,-8388608,-8388608,-8388608,445135,-8388608,-8388608,-8388608
10:43:41.108972,-8388608,-8388608,-8388608,-8388608,448881,-8388608,-8388608,-8388608
10:43:41.110149,-8388608,-8388608,-8388608,-8388608,449834,-8388608,-8388608,-8388608
10:43:41.110149,-8388608,-8388608,-8388608,-8388608,446884,-8388608,-8388608,-8388608
10:43:41.110149,-8388608,-8388608,-8388608,-8388608,444034,-8388608,-8388608,-8388608
10:43:41.110149,-8388608,-8388608,-8388608,-8388608,444353,-8388608,-8388608,-8388608
10:43:41.128217,-8388608,-8388608,-8388608,-8388608,447945,-8388608,-8388608,-8388608
10:43:41.130408,-8388608,-8388608,-8388608,-8388608,449146,-8388608,-8388608,-8388608
10:43:41.130408,-8388608,-8388608,-8388608,-8388608,447439,-8388608,-8388608,-8388608
10:43:41.130408,-8388608,-8388608,-8388608,-8388608,443876,-8388608,-8388608,-8388608
10:43:41.145115,-8388608,-8388608,-8388608,-8388608,443518,-8388608,-8388608,-8388608
10:43:41.148299,-8388608,-8388608,-8388608,-8388608,447481,-8388608,-8388608,-8388608
10:43:41.153287,-8388608,-8388608,-8388608,-8388608,449498,-8388608,-8388608,-8388608
10:43:41.157292,-8388608,-8388608,-8388608,-8388608,446619,-8388608,-8388608,-8388608
10:43:41.159736,-8388608,-8388608,-8388608,-8388608,445533,-8388608,-8388608,-8388608
10:43:41.159736,-8388608,-8388608,-8388608,-8388608,446006,-8388608,-8388608,-8388608
10:43:41.159736,-8388608,-8388608,-8388608,-8388608,447226,-8388608,-8388608,-8388608
10:43:41.159736,-8388608,-8388608,-8388608,-8388608,447864,-8388608,-8388608,-8388608
10:43:41.175141,-8388608,-8388608,-8388608,-8388608,449631,-8388608,-8388608,-8388608
10:43:41.176399,-8388608,-8388608,-8388608,-8388608,447403,-8388608,-8388608,-8388608
10:43:41.176399,-8388608,-8388608,-8388608,-8388608,442944,-8388608,-8388608,-8388608
10:43:41.176399,-8388608,-8388608,-8388608,-8388608,443958,-8388608,-8388608,-8388608
10:43:41.191870,-8388608,-8388608,-8388608,-8388608,445582,-8388608,-8388608,-8388608
10:43:41.193575,-8388608,-8388608,-8388608,-8388608,444344,-8388608,-8388608,-8388608
10:43:41.193575,-8388608,-8388608,-8388608,-8388608,448099,-8388608,-8388608,-8388608
10:43:41.193575,-8388608,-8388608,-8388608,-8388608,448357,-8388608,-8388608,-8388608
10:43:41.208466,-8388608,-8388608,-8388608,-8388608,446454,-8388608,-8388608,-8388608
10:43:41.212432,-8388608,-8388608,-8388608,-8388608,450775,-8388608,-8388608,-8388608
10:43:41.216373,-8388608,-8388608,-8388608,-8388608,449973,-8388608,-8388608,-8388608
10:43:41.220396,-8388608,-8388608,-8388608,-8388608,446414,-8388608,-8388608,-8388608
10:43:41.223564,-8388608,-8388608,-8388608,-8388608,445237,-8388608,-8388608,-8388608
10:43:41.227398,-8388608,-8388608,-8388608,-8388608,446777,-8388608,-8388608,-8388608
10:43:41.228204,-8388608,-8388608,-8388608,-8388608,448814,-8388608,-8388608,-8388608
10:43:41.228204,-8388608,-8388608,-8388608,-8388608,445931,-8388608,-8388608,-8388608
10:43:41.228204,-8388608,-8388608,-8388608,-8388608,444657,-8388608,-8388608,-8388608
10:43:41.242950,-8388608,-8388608,-8388608,-8388608,445412,-8388608,-8388608,-8388608
10:43:41.246981,-8388608,-8388608,-8388608,-8388608,448355,-8388608,-8388608,-8388608
10:43:41.249533,-8388608,-8388608,-8388608,-8388608,448584,-8388608,-8388608,-8388608
10:43:41.252543,-8388608,-8388608,-8388608,-8388608,446244,-8388608,-8388608,-8388608
10:43:41.259729,-8388608,-8388608,-8388608,-8388608,444856,-8388608,-8388608,-8388608
10:43:41.259729,-8388608,-8388608,-8388608,-8388608,444268,-8388608,-8388608,-8388608
10:43:41.259729,-8388608,-8388608,-8388608,-8388608,446773,-8388608,-8388608,-8388608
10:43:41.259729,-8388608,-8388608,-8388608,-8388608,450306,-8388608,-8388608,-8388608
10:43:41.275355,-8388608,-8388608,-8388608,-8388608,448479,-8388608,-8388608,-8388608
10:43:41.277210,-8388608,-8388608,-8388608,-8388608,444018,-8388608,-8388608,-8388608
10:43:41.277210,-8388608,-8388608,-8388608,-8388608,444846,-8388608,-8388608,-8388608
10:43:41.277210,-8388608,-8388608,-8388608,-8388608,446816,-8388608,-8388608,-8388608
10:43:41.291908,-8388608,-8388608,-8388608,-8388608,448789,-8388608,-8388608,-8388608
10:43:41.293356,-8388608,-8388608,-8388608,-8388608,448349,-8388608,-8388608,-8388608
10:43:41.293356,-8388608,-8388608,-8388608,-8388608,445603,-8388608,-8388608,-8388608
10:43:41.293356,-8388608,-8388608,-8388608,-8388608,445573,-8388608,-8388608,-8388608
10:43:41.309367,-8388608,-8388608,-8388608,-8388608,446824,-8388608,-8388608,-8388608
10:43:41.309948,-8388608,-8388608,-8388608,-8388608,449955,-8388608,-8388608,-8388608
10:43:41.309948,-8388608,-8388608,-8388608,-8388608,447683,-8388608,-8388608,-8388608
10:43:41.309948,-8388608,-8388608,-8388608,-8388608,443042,-8388608,-8388608,-8388608
10:43:41.325057,-8388608,-8388608,-8388608,-8388608,443688,-8388608,-8388608,-8388608
10:43:41.326433,-8388608,-8388608,-8388608,-8388608,446481,-8388608,-8388608,-8388608
10:43:41.332003,-8388608,-8388608,-8388608,-8388608,447347,-8388608,-8388608,-8388608
10:43:41.332003,-8388608,-8388608,-8388608,-8388608,448165,-8388608,-8388608,-8388608
10:43:41.332003,-8388608,-8388608,-8388608,-8388608,444328,-8388608,-8388608,-8388608
10:43:41.342869,-8388608,-8388608,-8388608,-8388608,444591,-8388608,-8388608,-8388608
10:43:41.347611,-8388608,-8388608,-8388608,-8388608,446781,-8388608,-8388608,-8388608
10:43:41.352610,-8388608,-8388608,-8388608,-8388608,448064,-8388608,-8388608,-8388608
10:43:41.355915,-8388608,-8388608,-8388608,-8388608,449243,-8388608,-8388608,-8388608
10:43:41.359604,-8388608,-8388608,-8388608,-8388608,444762,-8388608,-8388608,-8388608
10:43:41.359604,-8388608,-8388608,-8388608,-8388608,445376,-8388608,-8388608,-8388608
10:43:41.359604,-8388608,-8388608,-8388608,-8388608,446859,-8388608,-8388608,-8388608
10:43:41.359604,-8388608,-8388608,-8388608,-8388608,446314,-8388608,-8388608,-8388608
10:43:41.374785,-8388608,-8388608,-8388608,-8388608,447357,-8388608,-8388608,-8388608
10:43:41.376800,-8388608,-8388608,-8388608,-8388608,443442,-8388608,-8388608,-8388608
10:43:41.376800,-8388608,-8388608,-8388608,-8388608,441632,-8388608,-8388608,-8388608
10:43:41.376800,-8388608,-8388608,-8388608,-8388608,445969,-8388608,-8388608,-8388608
10:43:41.391800,-8388608,-8388608,-8388608,-8388608,448819,-8388608,-8388608,-8388608
10:43:41.393140,-8388608,-8388608,-8388608,-8388608,447085,-8388608,-8388608,-8388608
10:43:41.393140,-8388608,-8388608,-8388608,-8388608,446563,-8388608,-8388608,-8388608
10:43:41.393140,-8388608,-8388608,-8388608,-8388608,445296,-8388608,-8388608,-8388608
10:43:41.393140,-8388608,-8388608,-8388608,-8388608,445339,-8388608,-8388608,-8388608
10:43:41.410308,-8388608,-8388608,-8388608,-8388608,447021,-8388608,-8388608,-8388608
10:43:41.414379,-8388608,-8388608,-8388608,-8388608,444579,-8388608,-8388608,-8388608
10:43:41.414379,-8388608,-8388608,-8388608,-8388608,442938,-8388608,-8388608,-8388608
10:43:41.414379,-8388608,-8388608,-8388608,-8388608,441014,-8388608,-8388608,-8388608
10:43:41.426714,-8388608,-8388608,-8388608,-8388608,444478,-8388608,-8388608,-8388608
10:43:41.431181,-8388608,-8388608,-8388608,-8388608,448453,-8388608,-8388608,-8388608
10:43:41.431181,-8388608,-8388608,-8388608,-8388608,446229,-8388608,-8388608,-8388608
10:43:41.431181,-8388608,-8388608,-8388608,-8388608,441043,-8388608,-8388608,-8388608
10:43:41.443505,-8388608,-8388608,-8388608,-8388608,438456,-8388608,-8388608,-8388608
10:43:41.447491,-8388608,-8388608,-8388608,-8388608,440473,-8388608,-8388608,-8388608
10:43:41.448023,-8388608,-8388608,-8388608,-8388608,443383,-8388608,-8388608,-8388608
10:43:41.453042,-8388608,-8388608,-8388608,-8388608,441579,-8388608,-8388608,-8388608
10:43:41.459131,-8388608,-8388608,-8388608,-8388608,438923,-8388608,-8388608,-8388608
10:43:41.463068,-8388608,-8388608,-8388608,-8388608,439228,-8388608,-8388608,-8388608
10:43:41.464072,-8388608,-8388608,-8388608,-8388608,441884,-8388608,-8388608,-8388608
10:43:41.464072,-8388608,-8388608,-8388608,-8388608,444282,-8388608,-8388608,-8388608
10:43:41.474916,-8388608,-8388608,-8388608,-8388608,441379,-8388608,-8388608,-8388608
10:43:41.478920,-8388608,-8388608,-8388608,-8388608,441039,-8388608,-8388608,-8388608
10:43:41.481315,-8388608,-8388608,-8388608,-8388608,444130,-8388608,-8388608,-8388608
10:43:41.481315,-8388608,-8388608,-8388608,-8388608,446781,-8388608,-8388608,-8388608
10:43:41.481315,-8388608,-8388608,-8388608,-8388608,448106,-8388608,-8388608,-8388608
10:43:41.493621,-8388608,-8388608,-8388608,-8388608,446424,-8388608,-8388608,-8388608
10:43:41.497920,-8388608,-8388608,-8388608,-8388608,444299,-8388608,-8388608,-8388608
10:43:41.497920,-8388608,-8388608,-8388608,-8388608,444298,-8388608,-8388608,-8388608
10:43:41.497920,-8388608,-8388608,-8388608,-8388608,445338,-8388608,-8388608,-8388608
10:43:41.511291,-8388608,-8388608,-8388608,-8388608,449842,-8388608,-8388608,-8388608
10:43:41.514735,-8388608,-8388608,-8388608,-8388608,449654,-8388608,-8388608,-8388608
10:43:41.514735,-8388608,-8388608,-8388608,-8388608,441121,-8388608,-8388608,-8388608
10:43:41.514735,-8388608,-8388608,-8388608,-8388608,441858,-8388608,-8388608,-8388608
10:43:41.526924,-8388608,-8388608,-8388608,-8388608,445523,-8388608,-8388608,-8388608
10:43:41.530987,-8388608,-8388608,-8388608,-8388608,448165,-8388608,-8388608,-8388608
10:43:41.530987,-8388608,-8388608,-8388608,-8388608,447764,-8388608,-8388608,-8388608
10:43:41.530987,-8388608,-8388608,-8388608,-8388608,443942,-8388608,-8388608,-8388608
10:43:41.542594,-8388608,-8388608,-8388608,-8388608,443158,-8388608,-8388608,-8388608
10:43:41.546592,-8388608,-8388608,-8388608,-8388608,445610,-8388608,-8388608,-8388608
10:43:41.549239,-8388608,-8388608,-8388608,-8388608,448371,-8388608,-8388608,-8388608
10:43:41.553247,-8388608,-8388608,-8388608,-8388608,447583,-8388608,-8388608,-8388608
10:43:41.559215,-8388608,-8388608,-8388608,-8388608,440881,-8388608,-8388608,-8388608
10:43:41.562565,-8388608,-8388608,-8388608,-8388608,431473,-8388608,-8388608,-8388608
10:43:41.562565,-8388608,-8388608,-8388608,-8388608,423615,-8388608,-8388608,-8388608
10:43:41.562565,-8388608,-8388608,-8388608,-8388608,419719,-8388608,-8388608,-8388608
10:43:41.562565,-8388608,-8388608,-8388608,-8388608,411259,-8388608,-8388608,-8388608
10:43:41.579198,-8388608,-8388608,-8388608,-8388608,402972,-8388608,-8388608,-8388608
10:43:41.583320,-8388608,-8388608,-8388608,-8388608,401794,-8388608,-8388608,-8388608
10:43:41.587771,-8388608,-8388608,-8388608,-8388608,420969,-8388608,-8388608,-8388608
10:43:41.591113,-8388608,-8388608,-8388608,-8388608,444653,-8388608,-8388608,-8388608
10:43:41.592626,-8388608,-8388608,-8388608,-8388608,457748,-8388608,-8388608,-8388608
10:43:41.592626,-8388608,-8388608,-8388608,-8388608,455648,-8388608,-8388608,-8388608
10:43:41.592626,-8388608,-8388608,-8388608,-8388608,448541,-8388608,-8388608,-8388608
10:43:41.592626,-8388608,-8388608,-8388608,-8388608,450078,-8388608,-8388608,-8388608
10:43:41.609032,-8388608,-8388608,-8388608,-8388608,450932,-8388608,-8388608,-8388608
10:43:41.609032,-8388608,-8388608,-8388608,-8388608,446899,-8388608,-8388608,-8388608
10:43:41.609032,-8388608,-8388608,-8388608,-8388608,441656,-8388608,-8388608,-8388608
10:43:41.609032,-8388608,-8388608,-8388608,-8388608,440203,-8388608,-8388608,-8388608
10:43:41.625834,-8388608,-8388608,-8388608,-8388608,442454,-8388608,-8388608,-8388608
10:43:41.625834,-8388608,-8388608,-8388608,-8388608,446058,-8388608,-8388608,-8388608
10:43:41.625834,-8388608,-8388608,-8388608,-8388608,445594,-8388608,-8388608,-8388608
10:43:41.625834,-8388608,-8388608,-8388608,-8388608,443244,-8388608,-8388608,-8388608
10:43:41.642595,-8388608,-8388608,-8388608,-8388608,441711,-8388608,-8388608,-8388608
10:43:41.643090,-8388608,-8388608,-8388608,-8388608,443651,-8388608,-8388608,-8388608
10:43:41.643090,-8388608,-8388608,-8388608,-8388608,447652,-8388608,-8388608,-8388608
10:43:41.655325,-8388608,-8388608,-8388608,-8388608,444559,-8388608,-8388608,-8388608
10:43:41.658121,-8388608,-8388608,-8388608,-8388608,439513,-8388608,-8388608,-8388608
10:43:41.662127,-8388608,-8388608,-8388608,-8388608,441419,-8388608,-8388608,-8388608
10:43:41.666747,-8388608,-8388608,-8388608,-8388608,442541,-8388608,-8388608,-8388608
10:43:41.666747,-8388608,-8388608,-8388608,-8388608,443465,-8388608,-8388608,-8388608
10:43:41.675784,-8388608,-8388608,-8388608,-8388608,443252,-8388608,-8388608,-8388608
10:43:41.678783,-8388608,-8388608,-8388608,-8388608,442722,-8388608,-8388608,-8388608
10:43:41.683366,-8388608,-8388608,-8388608,-8388608,440467,-8388608,-8388608,-8388608
10:43:41.687381,-8388608,-8388608,-8388608,-8388608,440344,-8388608,-8388608,-8388608
10:43:41.691120,-8388608,-8388608,-8388608,-8388608,444746,-8388608,-8388608,-8388608
10:43:41.694507,-8388608,-8388608,-8388608,-8388608,443993,-8388608,-8388608,-8388608
10:43:41.695199,-8388608,-8388608,-8388608,-8388608,439367,-8388608,-8388608,-8388608
10:43:41.695199,-8388608,-8388608,-8388608,-8388608,435890,-8388608,-8388608,-8388608
10:43:41.695199,-8388608,-8388608,-8388608,-8388608,438699,-8388608,-8388608,-8388608
10:43:41.709037,-8388608,-8388608,-8388608,-8388608,441465,-8388608,-8388608,-8388608
10:43:41.715448,-8388608,-8388608,-8388608,-8388608,440254,-8388608,-8388608,-8388608
10:43:41.719446,-8388608,-8388608,-8388608,-8388608,436647,-8388608,-8388608,-8388608
10:43:41.723440,-8388608,-8388608,-8388608,-8388608,434983,-8388608,-8388608,-8388608
10:43:41.726393,-8388608,-8388608,-8388608,-8388608,439113,-8388608,-8388608,-8388608
10:43:41.726393,-8388608,-8388608,-8388608,-8388608,440556,-8388608,-8388608,-8388608
10:43:41.726393,-8388608,-8388608,-8388608,-8388608,438228,-8388608,-8388608,-8388608
10:43:41.726393,-8388608,-8388608,-8388608,-8388608,433043,-8388608,-8388608,-8388608
10:43:41.742462,-8388608,-8388608,-8388608,-8388608,430864,-8388608,-8388608,-8388608
10:43:41.746739,-8388608,-8388608,-8388608,-8388608,433956,-8388608,-8388608,-8388608
10:43:41.749583,-8388608,-8388608,-8388608,-8388608,437661,-8388608,-8388608,-8388608
10:43:41.753591,-8388608,-8388608,-8388608,-8388608,435904,-8388608,-8388608,-8388608
10:43:41.759844,-8388608,-8388608,-8388608,-8388608,433059,-8388608,-8388608,-8388608
10:43:41.763047,-8388608,-8388608,-8388608,-8388608,431763,-8388608,-8388608,-8388608
10:43:41.766111,-8388608,-8388608,-8388608,-8388608,431892,-8388608,-8388608,-8388608
10:43:41.771545,-8388608,-8388608,-8388608,-8388608,433158,-8388608,-8388608,-8388608
10:43:41.774139,-8388608,-8388608,-8388608,-8388608,433819,-8388608,-8388608,-8388608
10:43:41.775578,-8388608,-8388608,-8388608,-8388608,426876,-8388608,-8388608,-8388608
10:43:41.775578,-8388608,-8388608,-8388608,-8388608,425346,-8388608,-8388608,-8388608
10:43:41.775578,-8388608,-8388608,-8388608,-8388608,427723,-8388608,-8388608,-8388608
10:43:41.791287,-8388608,-8388608,-8388608,-8388608,429487,-8388608,-8388608,-8388608
10:43:41.792642,-8388608,-8388608,-8388608,-8388608,430518,-8388608,-8388608,-8388608
10:43:41.792642,-8388608,-8388608,-8388608,-8388608,423440,-8388608,-8388608,-8388608
10:43:41.792642,-8388608,-8388608,-8388608,-8388608,421419,-8388608,-8388608,-8388608
10:43:41.792642,-8388608,-8388608,-8388608,-8388608,422696,-8388608,-8388608,-8388608
10:43:41.809297,-8388608,-8388608,-8388608,-8388608,425696,-8388608,-8388608,-8388608
10:43:41.809297,-8388608,-8388608,-8388608,-8388608,427661,-8388608,-8388608,-8388608
10:43:41.809297,-8388608,-8388608,-8388608,-8388608,422871,-8388608,-8388608,-8388608
10:43:41.809297,-8388608,-8388608,-8388608,-8388608,419981,-8388608,-8388608,-8388608
10:43:41.825233,-8388608,-8388608,-8388608,-8388608,423678,-8388608,-8388608,-8388608
10:43:41.825233,-8388608,-8388608,-8388608,-8388608,428288,-8388608,-8388608,-8388608
10:43:41.825233,-8388608,-8388608,-8388608,-8388608,426966,-8388608,-8388608,-8388608
10:43:41.825233,-8388608,-8388608,-8388608,-8388608,425527,-8388608,-8388608,-8388608
10:43:41.841759,-8388608,-8388608,-8388608,-8388608,426112,-8388608,-8388608,-8388608
10:43:41.841759,-8388608,-8388608,-8388608,-8388608,430859,-8388608,-8388608,-8388608
10:43:41.841759,-8388608,-8388608,-8388608,-8388608,433953,-8388608,-8388608,-8388608
10:43:41.853766,-8388608,-8388608,-8388608,-8388608,432743,-8388608,-8388608,-8388608
10:43:41.858662,-8388608,-8388608,-8388608,-8388608,429493,-8388608,-8388608,-8388608
10:43:41.862848,-8388608,-8388608,-8388608,-8388608,429686,-8388608,-8388608,-8388608
10:43:41.862848,-8388608,-8388608,-8388608,-8388608,434073,-8388608,-8388608,-8388608
10:43:41.862848,-8388608,-8388608,-8388608,-8388608,439131,-8388608,-8388608,-8388608
10:43:41.875209,-8388608,-8388608,-8388608,-8388608,439706,-8388608,-8388608,-8388608
10:43:41.875209,-8388608,-8388608,-8388608,-8388608,436928,-8388608,-8388608,-8388608
10:43:41.875209,-8388608,-8388608,-8388608,-8388608,435659,-8388608,-8388608,-8388608
10:43:41.875209,-8388608,-8388608,-8388608,-8388608,440347,-8388608,-8388608,-8388608
10:43:41.891111,-8388608,-8388608,-8388608,-8388608,443138,-8388608,-8388608,-8388608
10:43:41.892574,-8388608,-8388608,-8388608,-8388608,442457,-8388608,-8388608,-8388608
10:43:41.892574,-8388608,-8388608,-8388608,-8388608,440736,-8388608,-8388608,-8388608
10:43:41.892574,-8388608,-8388608,-8388608,-8388608,439593,-8388608,-8388608,-8388608
10:43:41.892574,-8388608,-8388608,-8388608,-8388608,440611,-8388608,-8388608,-8388608
10:43:41.909865,-8388608,-8388608,-8388608,-8388608,444871,-8388608,-8388608,-8388608
10:43:41.915666,-8388608,-8388608,-8388608,-8388608,445411,-8388608,-8388608,-8388608
10:43:41.919640,-8388608,-8388608,-8388608,-8388608,442666,-8388608,-8388608,-8388608
10:43:41.923540,-8388608,-8388608,-8388608,-8388608,440327,-8388608,-8388608,-8388608
10:43:41.926150,-8388608,-8388608,-8388608,-8388608,442859,-8388608,-8388608,-8388608
10:43:41.928462,-8388608,-8388608,-8388608,-8388608,444832,-8388608,-8388608,-8388608
10:43:41.928462,-8388608,-8388608,-8388608,-8388608,442671,-8388608,-8388608,-8388608
10:43:41.928462,-8388608,-8388608,-8388608,-8388608,439476,-8388608,-8388608,-8388608
10:43:41.942881,-8388608,-8388608,-8388608,-8388608,439196,-8388608,-8388608,-8388608
10:43:41.942881,-8388608,-8388608,-8388608,-8388608,443511,-8388608,-8388608,-8388608
10:43:41.942881,-8388608,-8388608,-8388608,-8388608,444032,-8388608,-8388608,-8388608
10:43:41.953898,-8388608,-8388608,-8388608,-8388608,444119,-8388608,-8388608,-8388608
10:43:41.958045,-8388608,-8388608,-8388608,-8388608,442089,-8388608,-8388608,-8388608
10:43:41.959398,-8388608,-8388608,-8388608,-8388608,439041,-8388608,-8388608,-8388608
10:43:41.965641,-8388608,-8388608,-8388608,-8388608,441993,-8388608,-8388608,-8388608
10:43:41.965641,-8388608,-8388608,-8388608,-8388608,446126,-8388608,-8388608,-8388608
10:43:41.975474,-8388608,-8388608,-8388608,-8388608,444630,-8388608,-8388608,-8388608
10:43:41.977503,-8388608,-8388608,-8388608,-8388608,440018,-8388608,-8388608,-8388608
10:43:41.982545,-8388608,-8388608,-8388608,-8388608,435638,-8388608,-8388608,-8388608
10:43:41.986483,-8388608,-8388608,-8388608,-8388608,438513,-8388608,-8388608,-8388608
10:43:41.990479,-8388608,-8388608,-8388608,-8388608,445533,-8388608,-8388608,-8388608
10:43:41.992270,-8388608,-8388608,-8388608,-8388608,445953,-8388608,-8388608,-8388608
10:43:41.992270,-8388608,-8388608,-8388608,-8388608,441161,-8388608,-8388608,-8388608
10:43:41.992270,-8388608,-8388608,-8388608,-8388608,441288,-8388608,-8388608,-8388608
10:43:41.992270,-8388608,-8388608,-8388608,-8388608,443821,-8388608,-8388608,-8388608
10:43:42.008808,-8388608,-8388608,-8388608,-8388608,445431,-8388608,-8388608,-8388608
10:43:42.008808,-8388608,-8388608,-8388608,-8388608,444503,-8388608,-8388608,-8388608
10:43:42.008808,-8388608,-8388608,-8388608,-8388608,439608,-8388608,-8388608,-8388608
10:43:42.008808,-8388608,-8388608,-8388608,-8388608,437771,-8388608,-8388608,-8388608
10:43:42.025901,-8388608,-8388608,-8388608,-8388608,440983,-8388608,-8388608,-8388608
10:43:42.025901,-8388608,-8388608,-8388608,-8388608,443231,-8388608,-8388608,-8388608
10:43:42.025901,-8388608,-8388608,-8388608,-8388608,443093,-8388608,-8388608,-8388608
10:43:42.025901,-8388608,-8388608,-8388608,-8388608,440417,-8388608,-8388608,-8388608
10:43:42.041869,-8388608,-8388608,-8388608,-8388608,439078,-8388608,-8388608,-8388608
10:43:42.041869,-8388608,-8388608,-8388608,-8388608,441439,-8388608,-8388608,-8388608
10:43:42.041869,-8388608,-8388608,-8388608,-8388608,443692,-8388608,-8388608,-8388608
10:43:42.054011,-8388608,-8388608,-8388608,-8388608,443931,-8388608,-8388608,-8388608
10:43:42.058785,-8388608,-8388608,-8388608,-8388608,438461,-8388608,-8388608,-8388608
10:43:42.058785,-8388608,-8388608,-8388608,-8388608,435723,-8388608,-8388608,-8388608
10:43:42.058785,-8388608,-8388608,-8388608,-8388608,442191,-8388608,-8388608,-8388608
10:43:42.058785,-8388608,-8388608,-8388608,-8388608,445223,-8388608,-8388608,-8388608
10:43:42.074412,-8388608,-8388608,-8388608,-8388608,445331,-8388608,-8388608,-8388608
10:43:42.078521,-8388608,-8388608,-8388608,-8388608,441658,-8388608,-8388608,-8388608
10:43:42.080282,-8388608,-8388608,-8388608,-8388608,440569,-8388608,-8388608,-8388608
10:43:42.080282,-8388608,-8388608,-8388608,-8388608,439841,-8388608,-8388608,-8388608
10:43:42.080282,-8388608,-8388608,-8388608,-8388608,442513,-8388608,-8388608,-8388608
10:43:42.092098,-8388608,-8388608,-8388608,-8388608,443345,-8388608,-8388608,-8388608
10:43:42.092098,-8388608,-8388608,-8388608,-8388608,441442,-8388608,-8388608,-8388608
10:43:42.092098,-8388608,-8388608,-8388608,-8388608,440067,-8388608,-8388608,-8388608
10:43:42.092098,-8388608,-8388608,-8388608,-8388608,443203,-8388608,-8388608,-8388608
10:43:42.109075,-8388608,-8388608,-8388608,-8388608,445412,-8388608,-8388608,-8388608
10:43:42.109075,-8388608,-8388608,-8388608,-8388608,445729,-8388608,-8388608,-8388608
10:43:42.109075,-8388608,-8388608,-8388608,-8388608,440017,-8388608,-8388608,-8388608
10:43:42.109075,-8388608,-8388608,-8388608,-8388608,439829,-8388608,-8388608,-8388608
10:43:42.125877,-8388608,-8388608,-8388608,-8388608,441866,-8388608,-8388608,-8388608
10:43:42.125877,-8388608,-8388608,-8388608,-8388608,444411,-8388608,-8388608,-8388608
10:43:42.125877,-8388608,-8388608,-8388608,-8388608,443757,-8388608,-8388608,-8388608
10:43:42.125877,-8388608,-8388608,-8388608,-8388608,439376,-8388608,-8388608,-8388608
10:43:42.142254,-8388608,-8388608,-8388608,-8388608,438765,-8388608,-8388608,-8388608
10:43:42.142254,-8388608,-8388608,-8388608,-8388608,441347,-8388608,-8388608,-8388608
10:43:42.142254,-8388608,-8388608,-8388608,-8388608,444958,-8388608,-8388608,-8388608
10:43:42.154362,-8388608,-8388608,-8388608,-8388608,443619,-8388608,-8388608,-8388608
10:43:42.158684,-8388608,-8388608,-8388608,-8388608,439823,-8388608,-8388608,-8388608
10:43:42.159278,-8388608,-8388608,-8388608,-8388608,438459,-8388608,-8388608,-8388608
10:43:42.159278,-8388608,-8388608,-8388608,-8388608,441058,-8388608,-8388608,-8388608
10:43:42.159278,-8388608,-8388608,-8388608,-8388608,444976,-8388608,-8388608,-8388608
10:43:42.159278,-8388608,-8388608,-8388608,-8388608,443348,-8388608,-8388608,-8388608
10:43:42.175519,-8388608,-8388608,-8388608,-8388608,442370,-8388608,-8388608,-8388608
10:43:42.181138,-8388608,-8388608,-8388608,-8388608,441206,-8388608,-8388608,-8388608
10:43:42.181138,-8388608,-8388608,-8388608,-8388608,440599,-8388608,-8388608,-8388608
10:43:42.181138,-8388608,-8388608,-8388608,-8388608,442957,-8388608,-8388608,-8388608
10:43:42.194502,-8388608,-8388608,-8388608,-8388608,445964,-8388608,-8388608,-8388608
10:43:42.198846,-8388608,-8388608,-8388608,-8388608,441433,-8388608,-8388608,-8388608
10:43:42.202761,-8388608,-8388608,-8388608,-8388608,438575,-8388608,-8388608,-8388608
10:43:42.206104,-8388608,-8388608,-8388608,-8388608,441159,-8388608,-8388608,-8388608
10:43:42.208713,-8388608,-8388608,-8388608,-8388608,444282,-8388608,-8388608,-8388608
10:43:42.208713,-8388608,-8388608,-8388608,-8388608,444833,-8388608,-8388608,-8388608
10:43:42.208713,-8388608,-8388608,-8388608,-8388608,441117,-8388608,-8388608,-8388608
10:43:42.208713,-8388608,-8388608,-8388608,-8388608,439071,-8388608,-8388608,-8388608
10:43:42.225690,-8388608,-8388608,-8388608,-8388608,441062,-8388608,-8388608,-8388608
10:43:42.225690,-8388608,-8388608,-8388608,-8388608,444205,-8388608,-8388608,-8388608
10:43:42.225690,-8388608,-8388608,-8388608,-8388608,442979,-8388608,-8388608,-8388608
10:43:42.225690,-8388608,-8388608,-8388608,-8388608,439828,-8388608,-8388608,-8388608
10:43:42.242569,-8388608,-8388608,-8388608,-8388608,439997,-8388608,-8388608,-8388608
10:43:42.242569,-8388608,-8388608,-8388608,-8388608,442651,-8388608,-8388608,-8388608
10:43:42.242569,-8388608,-8388608,-8388608,-8388608,443777,-8388608,-8388608,-8388608
10:43:42.242569,-8388608,-8388608,-8388608,-8388608,443170,-8388608,-8388608,-8388608
10:43:42.257632,-8388608,-8388608,-8388608,-8388608,441316,-8388608,-8388608,-8388608
10:43:42.259197,-8388608,-8388608,-8388608,-8388608,437935,-8388608,-8388608,-8388608
10:43:42.259197,-8388608,-8388608,-8388608,-8388608,439853,-8388608,-8388608,-8388608
10:43:42.259197,-8388608,-8388608,-8388608,-8388608,445239,-8388608,-8388608,-8388608
10:43:42.274111,-8388608,-8388608,-8388608,-8388608,445209,-8388608,-8388608,-8388608
10:43:42.275369,-8388608,-8388608,-8388608,-8388608,441678,-8388608,-8388608,-8388608
10:43:42.275369,-8388608,-8388608,-8388608,-8388608,440084,-8388608,-8388608,-8388608
10:43:42.275369,-8388608,-8388608,-8388608,-8388608,442469,-8388608,-8388608,-8388608
10:43:42.291948,-8388608,-8388608,-8388608,-8388608,445419,-8388608,-8388608,-8388608
10:43:42.294944,-8388608,-8388608,-8388608,-8388608,443766,-8388608,-8388608,-8388608
10:43:42.297998,-8388608,-8388608,-8388608,-8388608,438551,-8388608,-8388608,-8388608
10:43:42.297998,-8388608,-8388608,-8388608,-8388608,436618,-8388608,-8388608,-8388608
10:43:42.297998,-8388608,-8388608,-8388608,-8388608,439583,-8388608,-8388608,-8388608
10:43:42.308630,-8388608,-8388608,-8388608,-8388608,442744,-8388608,-8388608,-8388608
10:43:42.308630,-8388608,-8388608,-8388608,-8388608,442089,-8388608,-8388608,-8388608
10:43:42.308630,-8388608,-8388608,-8388608,-8388608,439293,-8388608,-8388608,-8388608
10:43:42.308630,-8388608,-8388608,-8388608,-8388608,434623,-8388608,-8388608,-8388608
10:43:42.325496,-8388608,-8388608,-8388608,-8388608,436353,-8388608,-8388608,-8388608
10:43:42.325496,-8388608,-8388608,-8388608,-8388608,440171,-8388608,-8388608,-8388608
10:43:42.325496,-8388608,-8388608,-8388608,-8388608,437835,-8388608,-8388608,-8388608
10:43:42.325496,-8388608,-8388608,-8388608,-8388608,435304,-8388608,-8388608,-8388608
10:43:42.341782,-8388608,-8388608,-8388608,-8388608,436354,-8388608,-8388608,-8388608
10:43:42.342475,-8388608,-8388608,-8388608,-8388608,437479,-8388608,-8388608,-8388608
10:43:42.342475,-8388608,-8388608,-8388608,-8388608,442421,-8388608,-8388608,-8388608
10:43:42.342475,-8388608,-8388608,-8388608,-8388608,443484,-8388608,-8388608,-8388608
10:43:42.358546,-8388608,-8388608,-8388608,-8388608,439358,-8388608,-8388608,-8388608
10:43:42.358546,-8388608,-8388608,-8388608,-8388608,436012,-8388608,-8388608,-8388608
10:43:42.358546,-8388608,-8388608,-8388608,-8388608,441043,-8388608,-8388608,-8388608
10:43:42.358546,-8388608,-8388608,-8388608,-8388608,445303,-8388608,-8388608,-8388608
10:43:42.374170,-8388608,-8388608,-8388608,-8388608,444130,-8388608,-8388608,-8388608
10:43:42.375925,-8388608,-8388608,-8388608,-8388608,441146,-8388608,-8388608,-8388608
10:43:42.375925,-8388608,-8388608,-8388608,-8388608,439351,-8388608,-8388608,-8388608
10:43:42.375925,-8388608,-8388608,-8388608,-8388608,440871,-8388608,-8388608,-8388608
10:43:42.375925,-8388608,-8388608,-8388608,-8388608,444428,-8388608,-8388608,-8388608
10:43:42.391976,-8388608,-8388608,-8388608,-8388608,444936,-8388608,-8388608,-8388608
10:43:42.396627,-8388608,-8388608,-8388608,-8388608,443203,-8388608,-8388608,-8388608
10:43:42.396627,-8388608,-8388608,-8388608,-8388608,440733,-8388608,-8388608,-8388608
10:43:42.396627,-8388608,-8388608,-8388608,-8388608,438371,-8388608,-8388608,-8388608
10:43:42.409412,-8388608,-8388608,-8388608,-8388608,441509,-8388608,-8388608,-8388608
10:43:42.413997,-8388608,-8388608,-8388608,-8388608,442354,-8388608,-8388608,-8388608
10:43:42.417416,-8388608,-8388608,-8388608,-8388608,441512,-8388608,-8388608,-8388608
10:43:42.422162,-8388608,-8388608,-8388608,-8388608,440468,-8388608,-8388608,-8388608
10:43:42.425050,-8388608,-8388608,-8388608,-8388608,442268,-8388608,-8388608,-8388608
10:43:42.425050,-8388608,-8388608,-8388608,-8388608,444061,-8388608,-8388608,-8388608
10:43:42.425050,-8388608,-8388608,-8388608,-8388608,443248,-8388608,-8388608,-8388608
10:43:42.425050,-8388608,-8388608,-8388608,-8388608,435682,-8388608,-8388608,-8388608
10:43:42.441814,-8388608,-8388608,-8388608,-8388608,426328,-8388608,-8388608,-8388608
10:43:42.442293,-8388608,-8388608,-8388608,-8388608,419791,-8388608,-8388608,-8388608
10:43:42.442293,-8388608,-8388608,-8388608,-8388608,415869,-8388608,-8388608,-8388608
10:43:42.442293,-8388608,-8388608,-8388608,-8388608,407481,-8388608,-8388608,-8388608
10:43:42.457286,-8388608,-8388608,-8388608,-8388608,400206,-8388608,-8388608,-8388608
10:43:42.458632,-8388608,-8388608,-8388608,-8388608,402437,-8388608,-8388608,-8388608
10:43:42.458632,-8388608,-8388608,-8388608,-8388608,420798,-8388608,-8388608,-8388608
10:43:42.458632,-8388608,-8388608,-8388608,-8388608,442757,-8388608,-8388608,-8388608
10:43:42.458632,-8388608,-8388608,-8388608,-8388608,455476,-8388608,-8388608,-8388608
10:43:42.475553,-8388608,-8388608,-8388608,-8388608,450571,-8388608,-8388608,-8388608
10:43:42.475553,-8388608,-8388608,-8388608,-8388608,443870,-8388608,-8388608,-8388608
10:43:42.475553,-8388608,-8388608,-8388608,-8388608,444076,-8388608,-8388608,-8388608
10:43:42.475553,-8388608,-8388608,-8388608,-8388608,448114,-8388608,-8388608,-8388608
10:43:42.492182,-8388608,-8388608,-8388608,-8388608,446384,-8388608,-8388608,-8388608
10:43:42.492182,-8388608,-8388608,-8388608,-8388608,439741,-8388608,-8388608,-8388608
10:43:42.492182,-8388608,-8388608,-8388608,-8388608,437975,-8388608,-8388608,-8388608
10:43:42.492182,-8388608,-8388608,-8388608,-8388608,438418,-8388608,-8388608,-8388608
10:43:42.509458,-8388608,-8388608,-8388608,-8388608,440051,-8388608,-8388608,-8388608
10:43:42.513722,-8388608,-8388608,-8388608,-8388608,443730,-8388608,-8388608,-8388608
10:43:42.514378,-8388608,-8388608,-8388608,-8388608,441558,-8388608,-8388608,-8388608
10:43:42.514378,-8388608,-8388608,-8388608,-8388608,437979,-8388608,-8388608,-8388608
10:43:42.524717,-8388608,-8388608,-8388608,-8388608,441219,-8388608,-8388608,-8388608
10:43:42.524717,-8388608,-8388608,-8388608,-8388608,444732,-8388608,-8388608,-8388608
10:43:42.524717,-8388608,-8388608,-8388608,-8388608,440758,-8388608,-8388608,-8388608
10:43:42.524717,-8388608,-8388608,-8388608,-8388608,436741,-8388608,-8388608,-8388608
10:43:42.541675,-8388608,-8388608,-8388608,-8388608,434119,-8388608,-8388608,-8388608
10:43:42.541675,-8388608,-8388608,-8388608,-8388608,437492,-8388608,-8388608,-8388608
10:43:42.541675,-8388608,-8388608,-8388608,-8388608,442901,-8388608,-8388608,-8388608
10:43:42.541675,-8388608,-8388608,-8388608,-8388608,442274,-8388608,-8388608,-8388608
10:43:42.557348,-8388608,-8388608,-8388608,-8388608,437926,-8388608,-8388608,-8388608
10:43:42.558782,-8388608,-8388608,-8388608,-8388608,435537,-8388608,-8388608,-8388608
10:43:42.558782,-8388608,-8388608,-8388608,-8388608,437109,-8388608,-8388608,-8388608
10:43:42.558782,-8388608,-8388608,-8388608,-8388608,440729,-8388608,-8388608,-8388608
10:43:42.573983,-8388608,-8388608,-8388608,-8388608,439030,-8388608,-8388608,-8388608
10:43:42.575664,-8388608,-8388608,-8388608,-8388608,436034,-8388608,-8388608,-8388608
10:43:42.575664,-8388608,-8388608,-8388608,-8388608,432972,-8388608,-8388608,-8388608
10:43:42.575664,-8388608,-8388608,-8388608,-8388608,433924,-8388608,-8388608,-8388608
10:43:42.575664,-8388608,-8388608,-8388608,-8388608,439743,-8388608,-8388608,-8388608
10:43:42.591969,-8388608,-8388608,-8388608,-8388608,439335,-8388608,-8388608,-8388608
10:43:42.591969,-8388608,-8388608,-8388608,-8388608,436114,-8388608,-8388608,-8388608
10:43:42.591969,-8388608,-8388608,-8388608,-8388608,434178,-8388608,-8388608,-8388608
10:43:42.591969,-8388608,-8388608,-8388608,-8388608,434429,-8388608,-8388608,-8388608
10:43:42.608883,-8388608,-8388608,-8388608,-8388608,436549,-8388608,-8388608,-8388608
10:43:42.613315,-8388608,-8388608,-8388608,-8388608,437585,-8388608,-8388608,-8388608
10:43:42.615436,-8388608,-8388608,-8388608,-8388608,434744,-8388608,-8388608,-8388608
10:43:42.615436,-8388608,-8388608,-8388608,-8388608,430800,-8388608,-8388608,-8388608
10:43:42.625940,-8388608,-8388608,-8388608,-8388608,431028,-8388608,-8388608,-8388608
10:43:42.630094,-8388608,-8388608,-8388608,-8388608,432873,-8388608,-8388608,-8388608
10:43:42.633734,-8388608,-8388608,-8388608,-8388608,432294,-8388608,-8388608,-8388608
10:43:42.637753,-8388608,-8388608,-8388608,-8388608,426153,-8388608,-8388608,-8388608
10:43:42.641100,-8388608,-8388608,-8388608,-8388608,424589,-8388608,-8388608,-8388608
10:43:42.641834,-8388608,-8388608,-8388608,-8388608,427832,-8388608,-8388608,-8388608
10:43:42.641834,-8388608,-8388608,-8388608,-8388608,431671,-8388608,-8388608,-8388608
10:43:42.641834,-8388608,-8388608,-8388608,-8388608,430970,-8388608,-8388608,-8388608
10:43:42.658335,-8388608,-8388608,-8388608,-8388608,427447,-8388608,-8388608,-8388608
10:43:42.658857,-8388608,-8388608,-8388608,-8388608,424530,-8388608,-8388608,-8388608
10:43:42.658857,-8388608,-8388608,-8388608,-8388608,423835,-8388608,-8388608,-8388608
10:43:42.658857,-8388608,-8388608,-8388608,-8388608,425911,-8388608,-8388608,-8388608
10:43:42.673846,-8388608,-8388608,-8388608,-8388608,426011,-8388608,-8388608,-8388608
10:43:42.675697,-8388608,-8388608,-8388608,-8388608,422599,-8388608,-8388608,-8388608
10:43:42.675697,-8388608,-8388608,-8388608,-8388608,419949,-8388608,-8388608,-8388608
10:43:42.675697,-8388608,-8388608,-8388608,-8388608,421733,-8388608,-8388608,-8388608
10:43:42.675697,-8388608,-8388608,-8388608,-8388608,425931,-8388608,-8388608,-8388608
10:43:42.692221,-8388608,-8388608,-8388608,-8388608,425688,-8388608,-8388608,-8388608
10:43:42.692221,-8388608,-8388608,-8388608,-8388608,420050,-8388608,-8388608,-8388608
10:43:42.692221,-8388608,-8388608,-8388608,-8388608,417283,-8388608,-8388608,-8388608
10:43:42.707195,-8388608,-8388608,-8388608,-8388608,421919,-8388608,-8388608,-8388608
10:43:42.708881,-8388608,-8388608,-8388608,-8388608,426118,-8388608,-8388608,-8388608
10:43:42.708881,-8388608,-8388608,-8388608,-8388608,429001,-8388608,-8388608,-8388608
10:43:42.708881,-8388608,-8388608,-8388608,-8388608,425007,-8388608,-8388608,-8388608
10:43:42.708881,-8388608,-8388608,-8388608,-8388608,421718,-8388608,-8388608,-8388608
10:43:42.725035,-8388608,-8388608,-8388608,-8388608,423150,-8388608,-8388608,-8388608
10:43:42.729030,-8388608,-8388608,-8388608,-8388608,431242,-8388608,-8388608,-8388608
10:43:42.731864,-8388608,-8388608,-8388608,-8388608,434398,-8388608,-8388608,-8388608
10:43:42.731864,-8388608,-8388608,-8388608,-8388608,431096,-8388608,-8388608,-8388608
10:43:42.741450,-8388608,-8388608,-8388608,-8388608,427462,-8388608,-8388608,-8388608
10:43:42.741523,-8388608,-8388608,-8388608,-8388608,430463,-8388608,-8388608,-8388608
10:43:42.741523,-8388608,-8388608,-8388608,-8388608,438075,-8388608,-8388608,-8388608
10:43:42.741523,-8388608,-8388608,-8388608,-8388608,438436,-8388608,-8388608,-8388608
10:43:42.757125,-8388608,-8388608,-8388608,-8388608,435753,-8388608,-8388608,-8388608
10:43:42.758570,-8388608,-8388608,-8388608,-8388608,433766,-8388608,-8388608,-8388608
10:43:42.758570,-8388608,-8388608,-8388608,-8388608,435248,-8388608,-8388608,-8388608
10:43:42.758570,-8388608,-8388608,-8388608,-8388608,440876,-8388608,-8388608,-8388608
10:43:42.758570,-8388608,-8388608,-8388608,-8388608,440778,-8388608,-8388608,-8388608
10:43:42.775286,-8388608,-8388608,-8388608,-8388608,436554,-8388608,-8388608,-8388608
10:43:42.775286,-8388608,-8388608,-8388608,-8388608,433013,-8388608,-8388608,-8388608
10:43:42.775286,-8388608,-8388608,-8388608,-8388608,437084,-8388608,-8388608,-8388608
10:43:42.775286,-8388608,-8388608,-8388608,-8388608,443988,-8388608,-8388608,-8388608
10:43:42.792200,-8388608,-8388608,-8388608,-8388608,444348,-8388608,-8388608,-8388608
10:43:42.792200,-8388608,-8388608,-8388608,-8388608,439143,-8388608,-8388608,-8388608
10:43:42.792200,-8388608,-8388608,-8388608,-8388608,434791,-8388608,-8388608,-8388608
10:43:42.792200,-8388608,-8388608,-8388608,-8388608,438384,-8388608,-8388608,-8388608
10:43:42.808498,-8388608,-8388608,-8388608,-8388608,443656,-8388608,-8388608,-8388608
10:43:42.813484,-8388608,-8388608,-8388608,-8388608,443576,-8388608,-8388608,-8388608
10:43:42.815789,-8388608,-8388608,-8388608,-8388608,439857,-8388608,-8388608,-8388608
10:43:42.815789,-8388608,-8388608,-8388608,-8388608,437916,-8388608,-8388608,-8388608
10:43:42.823821,-8388608,-8388608,-8388608,-8388608,437590,-8388608,-8388608,-8388608
10:43:42.827859,-8388608,-8388608,-8388608,-8388608,441106,-8388608,-8388608,-8388608
10:43:42.831820,-8388608,-8388608,-8388608,-8388608,440303,-8388608,-8388608,-8388608
10:43:42.836766,-8388608,-8388608,-8388608,-8388608,438224,-8388608,-8388608,-8388608
10:43:42.841429,-8388608,-8388608,-8388608,-8388608,436067,-8388608,-8388608,-8388608
10:43:42.841429,-8388608,-8388608,-8388608,-8388608,438399,-8388608,-8388608,-8388608
10:43:42.841429,-8388608,-8388608,-8388608,-8388608,443794,-8388608,-8388608,-8388608
10:43:42.841429,-8388608,-8388608,-8388608,-8388608,443632,-8388608,-8388608,-8388608
10:43:42.856001,-8388608,-8388608,-8388608,-8388608,438838,-8388608,-8388608,-8388608
10:43:42.857829,-8388608,-8388608,-8388608,-8388608,433767,-8388608,-8388608,-8388608
10:43:42.857829,-8388608,-8388608,-8388608,-8388608,435268,-8388608,-8388608,-8388608
10:43:42.857829,-8388608,-8388608,-8388608,-8388608,440313,-8388608,-8388608,-8388608
10:43:42.873597,-8388608,-8388608,-8388608,-8388608,442791,-8388608,-8388608,-8388608
10:43:42.874814,-8388608,-8388608,-8388608,-8388608,439811,-8388608,-8388608,-8388608
10:43:42.874814,-8388608,-8388608,-8388608,-8388608,434726,-8388608,-8388608,-8388608
10:43:42.874814,-8388608,-8388608,-8388608,-8388608,436675,-8388608,-8388608,-8388608
10:43:42.874814,-8388608,-8388608,-8388608,-8388608,443373,-8388608,-8388608,-8388608
10:43:42.891603,-8388608,-8388608,-8388608,-8388608,442777,-8388608,-8388608,-8388608
10:43:42.891603,-8388608,-8388608,-8388608,-8388608,437999,-8388608,-8388608,-8388608
10:43:42.891603,-8388608,-8388608,-8388608,-8388608,434630,-8388608,-8388608,-8388608
10:43:42.891603,-8388608,-8388608,-8388608,-8388608,435766,-8388608,-8388608,-8388608
10:43:42.907998,-8388608,-8388608,-8388608,-8388608,440131,-8388608,-8388608,-8388608
10:43:42.907998,-8388608,-8388608,-8388608,-8388608,441054,-8388608,-8388608,-8388608
10:43:42.907998,-8388608,-8388608,-8388608,-8388608,437217,-8388608,-8388608,-8388608
10:43:42.907998,-8388608,-8388608,-8388608,-8388608,434494,-8388608,-8388608,-8388608
10:43:42.924908,-8388608,-8388608,-8388608,-8388608,435463,-8388608,-8388608,-8388608
10:43:42.924908,-8388608,-8388608,-8388608,-8388608,440328,-8388608,-8388608,-8388608
10:43:42.924908,-8388608,-8388608,-8388608,-8388608,442830,-8388608,-8388608,-8388608
10:43:42.924908,-8388608,-8388608,-8388608,-8388608,437807,-8388608,-8388608,-8388608
10:43:42.942314,-8388608,-8388608,-8388608,-8388608,433448,-8388608,-8388608,-8388608
10:43:42.945160,-8388608,-8388608,-8388608,-8388608,436437,-8388608,-8388608,-8388608
10:43:42.945160,-8388608,-8388608,-8388608,-8388608,442600,-8388608,-8388608,-8388608
10:43:42.945160,-8388608,-8388608,-8388608,-8388608,446077,-8388608,-8388608,-8388608
10:43:42.956744,-8388608,-8388608,-8388608,-8388608,438823,-8388608,-8388608,-8388608
10:43:42.957722,-8388608,-8388608,-8388608,-8388608,433296,-8388608,-8388608,-8388608
10:43:42.957722,-8388608,-8388608,-8388608,-8388608,438096,-8388608,-8388608,-8388608
10:43:42.957722,-8388608,-8388608,-8388608,-8388608,441311,-8388608,-8388608,-8388608
10:43:42.972775,-8388608,-8388608,-8388608,-8388608,440297,-8388608,-8388608,-8388608
10:43:42.975032,-8388608,-8388608,-8388608,-8388608,436816,-8388608,-8388608,-8388608
10:43:42.975032,-8388608,-8388608,-8388608,-8388608,435619,-8388608,-8388608,-8388608
10:43:42.975032,-8388608,-8388608,-8388608,-8388608,436594,-8388608,-8388608,-8388608
10:43:42.975032,-8388608,-8388608,-8388608,-8388608,440747,-8388608,-8388608,-8388608
10:43:42.992150,-8388608,-8388608,-8388608,-8388608,441893,-8388608,-8388608,-8388608
10:43:42.992150,-8388608,-8388608,-8388608,-8388608,438964,-8388608,-8388608,-8388608
10:43:42.992150,-8388608,-8388608,-8388608,-8388608,433884,-8388608,-8388608,-8388608
10:43:42.992150,-8388608,-8388608,-8388608,-8388608,435694,-8388608,-8388608,-8388608
10:43:43.008592,-8388608,-8388608,-8388608,-8388608,440659,-8388608,-8388608,-8388608
10:43:43.008592,-8388608,-8388608,-8388608,-8388608,441442,-8388608,-8388608,-8388608
10:43:43.008592,-8388608,-8388608,-8388608,-8388608,436766,-8388608,-8388608,-8388608
10:43:43.008592,-8388608,-8388608,-8388608,-8388608,433748,-8388608,-8388608,-8388608
10:43:43.024437,-8388608,-8388608,-8388608,-8388608,436790,-8388608,-8388608,-8388608
10:43:43.028759,-8388608,-8388608,-8388608,-8388608,441646,-8388608,-8388608,-8388608
10:43:43.031609,-8388608,-8388608,-8388608,-8388608,441746,-8388608,-8388608,-8388608
10:43:43.031609,-8388608,-8388608,-8388608,-8388608,435960,-8388608,-8388608,-8388608
10:43:43.041076,-8388608,-8388608,-8388608,-8388608,430496,-8388608,-8388608,-8388608
10:43:43.045407,-8388608,-8388608,-8388608,-8388608,432278,-8388608,-8388608,-8388608
10:43:43.050168,-8388608,-8388608,-8388608,-8388608,438676,-8388608,-8388608,-8388608
10:43:43.053279,-8388608,-8388608,-8388608,-8388608,442276,-8388608,-8388608,-8388608
10:43:43.056125,-8388608,-8388608,-8388608,-8388608,438128,-8388608,-8388608,-8388608
10:43:43.057862,-8388608,-8388608,-8388608,-8388608,435253,-8388608,-8388608,-8388608
10:43:43.057862,-8388608,-8388608,-8388608,-8388608,435187,-8388608,-8388608,-8388608
10:43:43.057862,-8388608,-8388608,-8388608,-8388608,440762,-8388608,-8388608,-8388608
10:43:43.073378,-8388608,-8388608,-8388608,-8388608,442000,-8388608,-8388608,-8388608
10:43:43.075772,-8388608,-8388608,-8388608,-8388608,436448,-8388608,-8388608,-8388608
10:43:43.075772,-8388608,-8388608,-8388608,-8388608,435231,-8388608,-8388608,-8388608
10:43:43.075772,-8388608,-8388608,-8388608,-8388608,437241,-8388608,-8388608,-8388608
10:43:43.075772,-8388608,-8388608,-8388608,-8388608,441447,-8388608,-8388608,-8388608
10:43:43.091547,-8388608,-8388608,-8388608,-8388608,438327,-8388608,-8388608,-8388608
10:43:43.091547,-8388608,-8388608,-8388608,-8388608,434635,-8388608,-8388608,-8388608
10:43:43.091547,-8388608,-8388608,-8388608,-8388608,433569,-8388608,-8388608,-8388608
10:43:43.091547,-8388608,-8388608,-8388608,-8388608,435654,-8388608,-8388608,-8388608
10:43:43.108917,-8388608,-8388608,-8388608,-8388608,440233,-8388608,-8388608,-8388608
10:43:43.108917,-8388608,-8388608,-8388608,-8388608,441104,-8388608,-8388608,-8388608
10:43:43.108917,-8388608,-8388608,-8388608,-8388608,437331,-8388608,-8388608,-8388608
10:43:43.108917,-8388608,-8388608,-8388608,-8388608,436141,-8388608,-8388608,-8388608
10:43:43.124638,-8388608,-8388608,-8388608,-8388608,435724,-8388608,-8388608,-8388608
10:43:43.125299,-8388608,-8388608,-8388608,-8388608,440093,-8388608,-8388608,-8388608
10:43:43.125299,-8388608,-8388608,-8388608,-8388608,441294,-8388608,-8388608,-8388608
10:43:43.125299,-8388608,-8388608,-8388608,-8388608,437836,-8388608,-8388608,-8388608
10:43:43.140155,-8388608,-8388608,-8388608,-8388608,433619,-8388608,-8388608,-8388608
10:43:43.144253,-8388608,-8388608,-8388608,-8388608,435935,-8388608,-8388608,-8388608
10:43:43.147770,-8388608,-8388608,-8388608,-8388608,440778,-8388608,-8388608,-8388608
10:43:43.147770,-8388608,-8388608,-8388608,-8388608,440720,-8388608,-8388608,-8388608
10:43:43.156598,-8388608,-8388608,-8388608,-8388608,435342,-8388608,-8388608,-8388608
10:43:43.157278,-8388608,-8388608,-8388608,-8388608,432874,-8388608,-8388608,-8388608
10:43:43.157278,-8388608,-8388608,-8388608,-8388608,431121,-8388608,-8388608,-8388608
10:43:43.157278,-8388608,-8388608,-8388608,-8388608,434714,-8388608,-8388608,-8388608
10:43:43.157278,-8388608,-8388608,-8388608,-8388608,435839,-8388608,-8388608,-8388608
10:43:43.174654,-8388608,-8388608,-8388608,-8388608,431896,-8388608,-8388608,-8388608
10:43:43.174654,-8388608,-8388608,-8388608,-8388608,431869,-8388608,-8388608,-8388608
10:43:43.174654,-8388608,-8388608,-8388608,-8388608,433530,-8388608,-8388608,-8388608
10:43:43.174654,-8388608,-8388608,-8388608,-8388608,437868,-8388608,-8388608,-8388608
10:43:43.191832,-8388608,-8388608,-8388608,-8388608,438352,-8388608,-8388608,-8388608
10:43:43.191832,-8388608,-8388608,-8388608,-8388608,434027,-8388608,-8388608,-8388608
10:43:43.191832,-8388608,-8388608,-8388608,-8388608,431346,-8388608,-8388608,-8388608
10:43:43.191832,-8388608,-8388608,-8388608,-8388608,436038,-8388608,-8388608,-8388608
10:43:43.208275,-8388608,-8388608,-8388608,-8388608,439231,-8388608,-8388608,-8388608
10:43:43.208275,-8388608,-8388608,-8388608,-8388608,439621,-8388608,-8388608,-8388608
10:43:43.208275,-8388608,-8388608,-8388608,-8388608,437473,-8388608,-8388608,-8388608
10:43:43.208275,-8388608,-8388608,-8388608,-8388608,434984,-8388608,-8388608,-8388608
10:43:43.224507,-8388608,-8388608,-8388608,-8388608,436205,-8388608,-8388608,-8388608
10:43:43.225221,-8388608,-8388608,-8388608,-8388608,440899,-8388608,-8388608,-8388608
10:43:43.225221,-8388608,-8388608,-8388608,-8388608,444369,-8388608,-8388608,-8388608
10:43:43.225221,-8388608,-8388608,-8388608,-8388608,440857,-8388608,-8388608,-8388608
10:43:43.241050,-8388608,-8388608,-8388608,-8388608,434764,-8388608,-8388608,-8388608
10:43:43.241494,-8388608,-8388608,-8388608,-8388608,436596,-8388608,-8388608,-8388608
10:43:43.247487,-8388608,-8388608,-8388608,-8388608,440751,-8388608,-8388608,-8388608
10:43:43.248579,-8388608,-8388608,-8388608,-8388608,440193,-8388608,-8388608,-8388608
10:43:43.248579,-8388608,-8388608,-8388608,-8388608,435041,-8388608,-8388608,-8388608
10:43:43.260440,-8388608,-8388608,-8388608,-8388608,433666,-8388608,-8388608,-8388608
10:43:43.264440,-8388608,-8388608,-8388608,-8388608,437624,-8388608,-8388608,-8388608
10:43:43.268440,-8388608,-8388608,-8388608,-8388608,440375,-8388608,-8388608,-8388608
10:43:43.272130,-8388608,-8388608,-8388608,-8388608,440584,-8388608,-8388608,-8388608
10:43:43.274557,-8388608,-8388608,-8388608,-8388608,436683,-8388608,-8388608,-8388608
10:43:43.274557,-8388608,-8388608,-8388608,-8388608,430288,-8388608,-8388608,-8388608
10:43:43.274557,-8388608,-8388608,-8388608,-8388608,425442,-8388608,-8388608,-8388608
10:43:43.274557,-8388608,-8388608,-8388608,-8388608,422178,-8388608,-8388608,-8388608
10:43:43.290972,-8388608,-8388608,-8388608,-8388608,413783,-8388608,-8388608,-8388608
10:43:43.290972,-8388608,-8388608,-8388608,-8388608,403651,-8388608,-8388608,-8388608
10:43:43.290972,-8388608,-8388608,-8388608,-8388608,396708,-8388608,-8388608,-8388608
10:43:43.290972,-8388608,-8388608,-8388608,-8388608,399587,-8388608,-8388608,-8388608
10:43:43.307324,-8388608,-8388608,-8388608,-8388608,416315,-8388608,-8388608,-8388608
10:43:43.307324,-8388608,-8388608,-8388608,-8388608,434901,-8388608,-8388608,-8388608
10:43:43.307324,-8388608,-8388608,-8388608,-8388608,449260,-8388608,-8388608,-8388608
10:43:43.307324,-8388608,-8388608,-8388608,-8388608,447396,-8388608,-8388608,-8388608
10:43:43.324267,-8388608,-8388608,-8388608,-8388608,443973,-8388608,-8388608,-8388608
10:43:43.324267,-8388608,-8388608,-8388608,-8388608,446293,-8388608,-8388608,-8388608
10:43:43.324267,-8388608,-8388608,-8388608,-8388608,445647,-8388608,-8388608,-8388608
10:43:43.324267,-8388608,-8388608,-8388608,-8388608,439272,-8388608,-8388608,-8388608
10:43:43.339969,-8388608,-8388608,-8388608,-8388608,431929,-8388608,-8388608,-8388608
10:43:43.341418,-8388608,-8388608,-8388608,-8388608,431492,-8388608,-8388608,-8388608
10:43:43.341418,-8388608,-8388608,-8388608,-8388608,435417,-8388608,-8388608,-8388608
10:43:43.341418,-8388608,-8388608,-8388608,-8388608,437826,-8388608,-8388608,-8388608
10:43:43.356544,-8388608,-8388608,-8388608,-8388608,436789,-8388608,-8388608,-8388608
10:43:43.359600,-8388608,-8388608,-8388608,-8388608,435241,-8388608,-8388608,-8388608
10:43:43.363834,-8388608,-8388608,-8388608,-8388608,434908,-8388608,-8388608,-8388608
10:43:43.363834,-8388608,-8388608,-8388608,-8388608,437541,-8388608,-8388608,-8388608
10:43:43.363834,-8388608,-8388608,-8388608,-8388608,439325,-8388608,-8388608,-8388608
10:43:43.374654,-8388608,-8388608,-8388608,-8388608,436200,-8388608,-8388608,-8388608
10:43:43.374654,-8388608,-8388608,-8388608,-8388608,433836,-8388608,-8388608,-8388608
10:43:43.374654,-8388608,-8388608,-8388608,-8388608,433780,-8388608,-8388608,-8388608
10:43:43.374654,-8388608,-8388608,-8388608,-8388608,436594,-8388608,-8388608,-8388608
10:43:43.391780,-8388608,-8388608,-8388608,-8388608,436952,-8388608,-8388608,-8388608
10:43:43.391780,-8388608,-8388608,-8388608,-8388608,432809,-8388608,-8388608,-8388608
10:43:43.391780,-8388608,-8388608,-8388608,-8388608,430133,-8388608,-8388608,-8388608
10:43:43.391780,-8388608,-8388608,-8388608,-8388608,431614,-8388608,-8388608,-8388608
10:43:43.408030,-8388608,-8388608,-8388608,-8388608,434339,-8388608,-8388608,-8388608
10:43:43.408030,-8388608,-8388608,-8388608,-8388608,437169,-8388608,-8388608,-8388608
10:43:43.408030,-8388608,-8388608,-8388608,-8388608,434466,-8388608,-8388608,-8388608
10:43:43.408030,-8388608,-8388608,-8388608,-8388608,428982,-8388608,-8388608,-8388608
10:43:43.424303,-8388608,-8388608,-8388608,-8388608,426738,-8388608,-8388608,-8388608
10:43:43.424998,-8388608,-8388608,-8388608,-8388608,433077,-8388608,-8388608,-8388608
10:43:43.424998,-8388608,-8388608,-8388608,-8388608,436628,-8388608,-8388608,-8388608
10:43:43.424998,-8388608,-8388608,-8388608,-8388608,434377,-8388608,-8388608,-8388608
10:43:43.439950,-8388608,-8388608,-8388608,-8388608,429803,-8388608,-8388608,-8388608
10:43:43.441442,-8388608,-8388608,-8388608,-8388608,432517,-8388608,-8388608,-8388608
10:43:43.441442,-8388608,-8388608,-8388608,-8388608,434844,-8388608,-8388608,-8388608
10:43:43.441442,-8388608,-8388608,-8388608,-8388608,433818,-8388608,-8388608,-8388608
10:43:43.456453,-8388608,-8388608,-8388608,-8388608,429213,-8388608,-8388608,-8388608
10:43:43.457980,-8388608,-8388608,-8388608,-8388608,424742,-8388608,-8388608,-8388608
10:43:43.463123,-8388608,-8388608,-8388608,-8388608,425389,-8388608,-8388608,-8388608
10:43:43.465303,-8388608,-8388608,-8388608,-8388608,430743,-8388608,-8388608,-8388608
10:43:43.465303,-8388608,-8388608,-8388608,-8388608,430459,-8388608,-8388608,-8388608
10:43:43.476306,-8388608,-8388608,-8388608,-8388608,426363,-8388608,-8388608,-8388608
10:43:43.480218,-8388608,-8388608,-8388608,-8388608,423317,-8388608,-8388608,-8388608
10:43:43.484516,-8388608,-8388608,-8388608,-8388608,422857,-8388608,-8388608,-8388608
10:43:43.488337,-8388608,-8388608,-8388608,-8388608,426847,-8388608,-8388608,-8388608
10:43:43.490785,-8388608,-8388608,-8388608,-8388608,426115,-8388608,-8388608,-8388608
10:43:43.490785,-8388608,-8388608,-8388608,-8388608,423171,-8388608,-8388608,-8388608
10:43:43.490785,-8388608,-8388608,-8388608,-8388608,417713,-8388608,-8388608,-8388608
10:43:43.490785,-8388608,-8388608,-8388608,-8388608,415475,-8388608,-8388608,-8388608
10:43:43.507906,-8388608,-8388608,-8388608,-8388608,424689,-8388608,-8388608,-8388608
10:43:43.507906,-8388608,-8388608,-8388608,-8388608,424498,-8388608,-8388608,-8388608
10:43:43.507906,-8388608,-8388608,-8388608,-8388608,419475,-8388608,-8388608,-8388608
10:43:43.507906,-8388608,-8388608,-8388608,-8388608,416193,-8388608,-8388608,-8388608
10:43:43.523139,-8388608,-8388608,-8388608,-8388608,417297,-8388608,-8388608,-8388608
10:43:43.524923,-8388608,-8388608,-8388608,-8388608,420816,-8388608,-8388608,-8388608
10:43:43.524923,-8388608,-8388608,-8388608,-8388608,421250,-8388608,-8388608,-8388608
10:43:43.524923,-8388608,-8388608,-8388608,-8388608,416149,-8388608,-8388608,-8388608
10:43:43.539994,-8388608,-8388608,-8388608,-8388608,413699,-8388608,-8388608,-8388608
10:43:43.541574,-8388608,-8388608,-8388608,-8388608,415454,-8388608,-8388608,-8388608
10:43:43.541574,-8388608,-8388608,-8388608,-8388608,419640,-8388608,-8388608,-8388608
10:43:43.541574,-8388608,-8388608,-8388608,-8388608,423483,-8388608,-8388608,-8388608
10:43:43.556319,-8388608,-8388608,-8388608,-8388608,420999,-8388608,-8388608,-8388608
10:43:43.558076,-8388608,-8388608,-8388608,-8388608,417093,-8388608,-8388608,-8388608
10:43:43.558076,-8388608,-8388608,-8388608,-8388608,418803,-8388608,-8388608,-8388608
10:43:43.558076,-8388608,-8388608,-8388608,-8388608,424957,-8388608,-8388608,-8388608
10:43:43.558076,-8388608,-8388608,-8388608,-8388608,428361,-8388608,-8388608,-8388608
10:43:43.575127,-8388608,-8388608,-8388608,-8388608,423841,-8388608,-8388608,-8388608
10:43:43.579144,-8388608,-8388608,-8388608,-8388608,421775,-8388608,-8388608,-8388608
10:43:43.581069,-8388608,-8388608,-8388608,-8388608,425918,-8388608,-8388608,-8388608
10:43:43.581069,-8388608,-8388608,-8388608,-8388608,432488,-8388608,-8388608,-8388608
10:43:43.591304,-8388608,-8388608,-8388608,-8388608,434244,-8388608,-8388608,-8388608
10:43:43.591304,-8388608,-8388608,-8388608,-8388608,430919,-8388608,-8388608,-8388608
10:43:43.591304,-8388608,-8388608,-8388608,-8388608,428283,-8388608,-8388608,-8388608
10:43:43.591304,-8388608,-8388608,-8388608,-8388608,427401,-8388608,-8388608,-8388608
10:43:43.607715,-8388608,-8388608,-8388608,-8388608,431531,-8388608,-8388608,-8388608
10:43:43.607715,-8388608,-8388608,-8388608,-8388608,438492,-8388608,-8388608,-8388608
10:43:43.607715,-8388608,-8388608,-8388608,-8388608,434883,-8388608,-8388608,-8388608
10:43:43.607715,-8388608,-8388608,-8388608,-8388608,433341,-8388608,-8388608,-8388608
10:43:43.623340,-8388608,-8388608,-8388608,-8388608,432544,-8388608,-8388608,-8388608
10:43:43.624867,-8388608,-8388608,-8388608,-8388608,436124,-8388608,-8388608,-8388608
10:43:43.624867,-8388608,-8388608,-8388608,-8388608,437328,-8388608,-8388608,-8388608
10:43:43.624867,-8388608,-8388608,-8388608,-8388608,435778,-8388608,-8388608,-8388608
10:43:43.639877,-8388608,-8388608,-8388608,-8388608,431857,-8388608,-8388608,-8388608
10:43:43.642121,-8388608,-8388608,-8388608,-8388608,433398,-8388608,-8388608,-8388608
10:43:43.642121,-8388608,-8388608,-8388608,-8388608,437492,-8388608,-8388608,-8388608
10:43:43.642121,-8388608,-8388608,-8388608,-8388608,439988,-8388608,-8388608,-8388608
10:43:43.642121,-8388608,-8388608,-8388608,-8388608,436739,-8388608,-8388608,-8388608
10:43:43.658112,-8388608,-8388608,-8388608,-8388608,432727,-8388608,-8388608,-8388608
10:43:43.663150,-8388608,-8388608,-8388608,-8388608,434689,-8388608,-8388608,-8388608
10:43:43.664378,-8388608,-8388608,-8388608,-8388608,438623,-8388608,-8388608,-8388608
10:43:43.664378,-8388608,-8388608,-8388608,-8388608,438918,-8388608,-8388608,-8388608
10:43:43.676090,-8388608,-8388608,-8388608,-8388608,434586,-8388608,-8388608,-8388608
10:43:43.679310,-8388608,-8388608,-8388608,-8388608,430864,-8388608,-8388608,-8388608
10:43:43.683809,-8388608,-8388608,-8388608,-8388608,433068,-8388608,-8388608,-8388608
10:43:43.687826,-8388608,-8388608,-8388608,-8388608,437487,-8388608,-8388608,-8388608
10:43:43.691144,-8388608,-8388608,-8388608,-8388608,437008,-8388608,-8388608,-8388608
10:43:43.691144,-8388608,-8388608,-8388608,-8388608,434641,-8388608,-8388608,-8388608
10:43:43.691144,-8388608,-8388608,-8388608,-8388608,433535,-8388608,-8388608,-8388608
10:43:43.691144,-8388608,-8388608,-8388608,-8388608,431876,-8388608,-8388608,-8388608
10:43:43.706333,-8388608,-8388608,-8388608,-8388608,435519,-8388608,-8388608,-8388608
10:43:43.707610,-8388608,-8388608,-8388608,-8388608,438388,-8388608,-8388608,-8388608
10:43:43.707610,-8388608,-8388608,-8388608,-8388608,436817,-8388608,-8388608,-8388608
10:43:43.707610,-8388608,-8388608,-8388608,-8388608,433128,-8388608,-8388608,-8388608
10:43:43.724020,-8388608,-8388608,-8388608,-8388608,432827,-8388608,-8388608,-8388608
10:43:43.724526,-8388608,-8388608,-8388608,-8388608,436124,-8388608,-8388608,-8388608
10:43:43.724526,-8388608,-8388608,-8388608,-8388608,437007,-8388608,-8388608,-8388608
10:43:43.724526,-8388608,-8388608,-8388608,-8388608,434507,-8388608,-8388608,-8388608
10:43:43.739594,-8388608,-8388608,-8388608,-8388608,430788,-8388608,-8388608,-8388608
10:43:43.741613,-8388608,-8388608,-8388608,-8388608,432801,-8388608,-8388608,-8388608
10:43:43.741613,-8388608,-8388608,-8388608,-8388608,436477,-8388608,-8388608,-8388608
10:43:43.741613,-8388608,-8388608,-8388608,-8388608,437371,-8388608,-8388608,-8388608
10:43:43.741613,-8388608,-8388608,-8388608,-8388608,434314,-8388608,-8388608,-8388608
10:43:43.757800,-8388608,-8388608,-8388608,-8388608,430512,-8388608,-8388608,-8388608
10:43:43.757800,-8388608,-8388608,-8388608,-8388608,433304,-8388608,-8388608,-8388608
10:43:43.757800,-8388608,-8388608,-8388608,-8388608,436910,-8388608,-8388608,-8388608
10:43:43.757800,-8388608,-8388608,-8388608,-8388608,437950,-8388608,-8388608,-8388608
10:43:43.774437,-8388608,-8388608,-8388608,-8388608,432645,-8388608,-8388608,-8388608
10:43:43.774437,-8388608,-8388608,-8388608,-8388608,429298,-8388608,-8388608,-8388608
10:43:43.774437,-8388608,-8388608,-8388608,-8388608,432546,-8388608,-8388608,-8388608
10:43:43.774437,-8388608,-8388608,-8388608,-8388608,436143,-8388608,-8388608,-8388608
10:43:43.790474,-8388608,-8388608,-8388608,-8388608,438316,-8388608,-8388608,-8388608
10:43:43.795721,-8388608,-8388608,-8388608,-8388608,436251,-8388608,-8388608,-8388608
10:43:43.796302,-8388608,-8388608,-8388608,-8388608,433018,-8388608,-8388608,-8388608
10:43:43.796302,-8388608,-8388608,-8388608,-8388608,433953,-8388608,-8388608,-8388608
10:43:43.807204,-8388608,-8388608,-8388608,-8388608,434815,-8388608,-8388608,-8388608
10:43:43.807204,-8388608,-8388608,-8388608,-8388608,437803,-8388608,-8388608,-8388608
10:43:43.807204,-8388608,-8388608,-8388608,-8388608,434761,-8388608,-8388608,-8388608
10:43:43.807204,-8388608,-8388608,-8388608,-8388608,430713,-8388608,-8388608,-8388608
10:43:43.822995,-8388608,-8388608,-8388608,-8388608,432696,-8388608,-8388608,-8388608
10:43:43.824270,-8388608,-8388608,-8388608,-8388608,437344,-8388608,-8388608,-8388608
10:43:43.824270,-8388608,-8388608,-8388608,-8388608,438804,-8388608,-8388608,-8388608
10:43:43.824270,-8388608,-8388608,-8388608,-8388608,435451,-8388608,-8388608,-8388608
10:43:43.841694,-8388608,-8388608,-8388608,-8388608,432747,-8388608,-8388608,-8388608
10:43:43.844697,-8388608,-8388608,-8388608,-8388608,432468,-8388608,-8388608,-8388608
10:43:43.846282,-8388608,-8388608,-8388608,-8388608,435862,-8388608,-8388608,-8388608
10:43:43.846282,-8388608,-8388608,-8388608,-8388608,436352,-8388608,-8388608,-8388608
10:43:43.846282,-8388608,-8388608,-8388608,-8388608,434750,-8388608,-8388608,-8388608
10:43:43.856896,-8388608,-8388608,-8388608,-8388608,433228,-8388608,-8388608,-8388608
10:43:43.856896,-8388608,-8388608,-8388608,-8388608,434461,-8388608,-8388608,-8388608
10:43:43.856896,-8388608,-8388608,-8388608,-8388608,437426,-8388608,-8388608,-8388608
10:43:43.856896,-8388608,-8388608,-8388608,-8388608,436796,-8388608,-8388608,-8388608
10:43:43.873817,-8388608,-8388608,-8388608,-8388608,437269,-8388608,-8388608,-8388608
10:43:43.877747,-8388608,-8388608,-8388608,-8388608,433903,-8388608,-8388608,-8388608
10:43:43.877747,-8388608,-8388608,-8388608,-8388608,433064,-8388608,-8388608,-8388608
10:43:43.877747,-8388608,-8388608,-8388608,-8388608,436881,-8388608,-8388608,-8388608
10:43:43.891577,-8388608,-8388608,-8388608,-8388608,438969,-8388608,-8388608,-8388608
10:43:43.895579,-8388608,-8388608,-8388608,-8388608,434644,-8388608,-8388608,-8388608
10:43:43.900116,-8388608,-8388608,-8388608,-8388608,429301,-8388608,-8388608,-8388608
10:43:43.903096,-8388608,-8388608,-8388608,-8388608,429785,-8388608,-8388608,-8388608
10:43:43.906880,-8388608,-8388608,-8388608,-8388608,436477,-8388608,-8388608,-8388608
10:43:43.906880,-8388608,-8388608,-8388608,-8388608,442089,-8388608,-8388608,-8388608
10:43:43.906880,-8388608,-8388608,-8388608,-8388608,438003,-8388608,-8388608,-8388608
10:43:43.906880,-8388608,-8388608,-8388608,-8388608,432603,-8388608,-8388608,-8388608
10:43:43.922778,-8388608,-8388608,-8388608,-8388608,431024,-8388608,-8388608,-8388608
10:43:43.924358,-8388608,-8388608,-8388608,-8388608,433788,-8388608,-8388608,-8388608
10:43:43.924358,-8388608,-8388608,-8388608,-8388608,438273,-8388608,-8388608,-8388608
10:43:43.924358,-8388608,-8388608,-8388608,-8388608,436239,-8388608,-8388608,-8388608
10:43:43.939257,-8388608,-8388608,-8388608,-8388608,429885,-8388608,-8388608,-8388608
10:43:43.940789,-8388608,-8388608,-8388608,-8388608,430581,-8388608,-8388608,-8388608
10:43:43.940789,-8388608,-8388608,-8388608,-8388608,435734,-8388608,-8388608,-8388608
10:43:43.940789,-8388608,-8388608,-8388608,-8388608,437308,-8388608,-8388608,-8388608
10:43:43.940789,-8388608,-8388608,-8388608,-8388608,435263,-8388608,-8388608,-8388608
10:43:43.957439,-8388608,-8388608,-8388608,-8388608,432665,-8388608,-8388608,-8388608
10:43:43.957439,-8388608,-8388608,-8388608,-8388608,433947,-8388608,-8388608,-8388608
10:43:43.957439,-8388608,-8388608,-8388608,-8388608,437204,-8388608,-8388608,-8388608
10:43:43.957439,-8388608,-8388608,-8388608,-8388608,437756,-8388608,-8388608,-8388608
10:43:43.974394,-8388608,-8388608,-8388608,-8388608,435027,-8388608,-8388608,-8388608
10:43:43.974394,-8388608,-8388608,-8388608,-8388608,433383,-8388608,-8388608,-8388608
10:43:43.974394,-8388608,-8388608,-8388608,-8388608,431933,-8388608,-8388608,-8388608
10:43:43.974394,-8388608,-8388608,-8388608,-8388608,434237,-8388608,-8388608,-8388608
10:43:43.990997,-8388608,-8388608,-8388608,-8388608,437574,-8388608,-8388608,-8388608
10:43:43.990997,-8388608,-8388608,-8388608,-8388608,436278,-8388608,-8388608,-8388608
10:43:43.990997,-8388608,-8388608,-8388608,-8388608,432611,-8388608,-8388608,-8388608
10:43:43.990997,-8388608,-8388608,-8388608,-8388608,429838,-8388608,-8388608,-8388608
10:43:44.008082,-8388608,-8388608,-8388608,-8388608,436284,-8388608,-8388608,-8388608
10:43:44.011080,-8388608,-8388608,-8388608,-8388608,438383,-8388608,-8388608,-8388608
10:43:44.013979,-8388608,-8388608,-8388608,-8388608,435843,-8388608,-8388608,-8388608
10:43:44.013979,-8388608,-8388608,-8388608,-8388608,432492,-8388608,-8388608,-8388608
10:43:44.013979,-8388608,-8388608,-8388608,-8388608,431457,-8388608,-8388608,-8388608
10:43:44.024126,-8388608,-8388608,-8388608,-8388608,434273,-8388608,-8388608,-8388608
10:43:44.024126,-8388608,-8388608,-8388608,-8388608,438053,-8388608,-8388608,-8388608
10:43:44.024126,-8388608,-8388608,-8388608,-8388608,433062,-8388608,-8388608,-8388608
10:43:44.024126,-8388608,-8388608,-8388608,-8388608,430518,-8388608,-8388608,-8388608
10:43:44.041449,-8388608,-8388608,-8388608,-8388608,431943,-8388608,-8388608,-8388608
10:43:44.041449,-8388608,-8388608,-8388608,-8388608,434782,-8388608,-8388608,-8388608
10:43:44.041449,-8388608,-8388608,-8388608,-8388608,435334,-8388608,-8388608,-8388608
10:43:44.041449,-8388608,-8388608,-8388608,-8388608,433462,-8388608,-8388608,-8388608
10:43:44.058270,-8388608,-8388608,-8388608,-8388608,430918,-8388608,-8388608,-8388608
10:43:44.058270,-8388608,-8388608,-8388608,-8388608,430332,-8388608,-8388608,-8388608
10:43:44.058270,-8388608,-8388608,-8388608,-8388608,433672,-8388608,-8388608,-8388608
10:43:44.058270,-8388608,-8388608,-8388608,-8388608,435203,-8388608,-8388608,-8388608
10:43:44.074223,-8388608,-8388608,-8388608,-8388608,430852,-8388608,-8388608,-8388608
10:43:44.078939,-8388608,-8388608,-8388608,-8388608,424624,-8388608,-8388608,-8388608
10:43:44.078939,-8388608,-8388608,-8388608,-8388608,426593,-8388608,-8388608,-8388608
10:43:44.078939,-8388608,-8388608,-8388608,-8388608,431073,-8388608,-8388608,-8388608
10:43:44.092138,-8388608,-8388608,-8388608,-8388608,430770,-8388608,-8388608,-8388608
10:43:44.095062,-8388608,-8388608,-8388608,-8388608,431435,-8388608,-8388608,-8388608
10:43:44.098594,-8388608,-8388608,-8388608,-8388608,430274,-8388608,-8388608,-8388608
10:43:44.103863,-8388608,-8388608,-8388608,-8388608,430505,-8388608,-8388608,-8388608
10:43:44.107064,-8388608,-8388608,-8388608,-8388608,433393,-8388608,-8388608,-8388608
10:43:44.110061,-8388608,-8388608,-8388608,-8388608,436174,-8388608,-8388608,-8388608
10:43:44.110717,-8388608,-8388608,-8388608,-8388608,433787,-8388608,-8388608,-8388608
10:43:44.110717,-8388608,-8388608,-8388608,-8388608,429464,-8388608,-8388608,-8388608
10:43:44.110717,-8388608,-8388608,-8388608,-8388608,432192,-8388608,-8388608,-8388608
10:43:44.123535,-8388608,-8388608,-8388608,-8388608,436908,-8388608,-8388608,-8388608
10:43:44.123535,-8388608,-8388608,-8388608,-8388608,437707,-8388608,-8388608,-8388608
10:43:44.123535,-8388608,-8388608,-8388608,-8388608,434572,-8388608,-8388608,-8388608
10:43:44.123535,-8388608,-8388608,-8388608,-8388608,431201,-8388608,-8388608,-8388608
10:43:44.140234,-8388608,-8388608,-8388608,-8388608,431086,-8388608,-8388608,-8388608
10:43:44.140234,-8388608,-8388608,-8388608,-8388608,435880,-8388608,-8388608,-8388608
10:43:44.140234,-8388608,-8388608,-8388608,-8388608,437187,-8388608,-8388608,-8388608
10:43:44.156007,-8388608,-8388608,-8388608,-8388608,434888,-8388608,-8388608,-8388608
10:43:44.157490,-8388608,-8388608,-8388608,-8388608,434883,-8388608,-8388608,-8388608
10:43:44.157490,-8388608,-8388608,-8388608,-8388608,434769,-8388608,-8388608,-8388608
10:43:44.157490,-8388608,-8388608,-8388608,-8388608,437048,-8388608,-8388608,-8388608
10:43:44.157490,-8388608,-8388608,-8388608,-8388608,440022,-8388608,-8388608,-8388608
10:43:44.174060,-8388608,-8388608,-8388608,-8388608,436434,-8388608,-8388608,-8388608
10:43:44.174060,-8388608,-8388608,-8388608,-8388608,433222,-8388608,-8388608,-8388608
10:43:44.174060,-8388608,-8388608,-8388608,-8388608,429901,-8388608,-8388608,-8388608
10:43:44.174060,-8388608,-8388608,-8388608,-8388608,433973,-8388608,-8388608,-8388608
10:43:44.190518,-8388608,-8388608,-8388608,-8388608,431621,-8388608,-8388608,-8388608
10:43:44.190518,-8388608,-8388608,-8388608,-8388608,420079,-8388608,-8388608,-8388608
10:43:44.190518,-8388608,-8388608,-8388608,-8388608,408716,-8388608,-8388608,-8388608
10:43:44.190518,-8388608,-8388608,-8388608,-8388608,399963,-8388608,-8388608,-8388608
10:43:44.205952,-8388608,-8388608,-8388608,-8388608,396422,-8388608,-8388608,-8388608
10:43:44.207300,-8388608,-8388608,-8388608,-8388608,396613,-8388608,-8388608,-8388608
10:43:44.207300,-8388608,-8388608,-8388608,-8388608,401705,-8388608,-8388608,-8388608
10:43:44.207300,-8388608,-8388608,-8388608,-8388608,414992,-8388608,-8388608,-8388608
10:43:44.222372,-8388608,-8388608,-8388608,-8388608,434156,-8388608,-8388608,-8388608
10:43:44.226458,-8388608,-8388608,-8388608,-8388608,447988,-8388608,-8388608,-8388608
10:43:44.229527,-8388608,-8388608,-8388608,-8388608,448311,-8388608,-8388608,-8388608
10:43:44.229527,-8388608,-8388608,-8388608,-8388608,441713,-8388608,-8388608,-8388608
10:43:44.240152,-8388608,-8388608,-8388608,-8388608,435346,-8388608,-8388608,-8388608
10:43:44.240650,-8388608,-8388608,-8388608,-8388608,433075,-8388608,-8388608,-8388608
10:43:44.240650,-8388608,-8388608,-8388608,-8388608,436950,-8388608,-8388608,-8388608
10:43:44.240650,-8388608,-8388608,-8388608,-8388608,437219,-8388608,-8388608,-8388608
10:43:44.240650,-8388608,-8388608,-8388608,-8388608,435373,-8388608,-8388608,-8388608
10:43:44.257787,-8388608,-8388608,-8388608,-8388608,431668,-8388608,-8388608,-8388608
10:43:44.257787,-8388608,-8388608,-8388608,-8388608,431221,-8388608,-8388608,-8388608
10:43:44.257787,-8388608,-8388608,-8388608,-8388608,436513,-8388608,-8388608,-8388608
10:43:44.257787,-8388608,-8388608,-8388608,-8388608,437740,-8388608,-8388608,-8388608
10:43:44.273855,-8388608,-8388608,-8388608,-8388608,433473,-8388608,-8388608,-8388608
10:43:44.273855,-8388608,-8388608,-8388608,-8388608,429556,-8388608,-8388608,-8388608
10:43:44.273855,-8388608,-8388608,-8388608,-8388608,428614,-8388608,-8388608,-8388608
10:43:44.273855,-8388608,-8388608,-8388608,-8388608,432823,-8388608,-8388608,-8388608
10:43:44.289365,-8388608,-8388608,-8388608,-8388608,435801,-8388608,-8388608,-8388608
10:43:44.291655,-8388608,-8388608,-8388608,-8388608,433752,-8388608,-8388608,-8388608
10:43:44.297682,-8388608,-8388608,-8388608,-8388608,429998,-8388608,-8388608,-8388608
10:43:44.297682,-8388608,-8388608,-8388608,-8388608,429840,-8388608,-8388608,-8388608
10:43:44.305928,-8388608,-8388608,-8388608,-8388608,432614,-8388608,-8388608,-8388608
10:43:44.310019,-8388608,-8388608,-8388608,-8388608,434901,-8388608,-8388608,-8388608
10:43:44.314702,-8388608,-8388608,-8388608,-8388608,432616,-8388608,-8388608,-8388608
10:43:44.318694,-8388608,-8388608,-8388608,-8388608,428131,-8388608,-8388608,-8388608
10:43:44.322098,-8388608,-8388608,-8388608,-8388608,426623,-8388608,-8388608,-8388608
10:43:44.327169,-8388608,-8388608,-8388608,-8388608,431601,-8388608,-8388608,-8388608
10:43:44.328810,-8388608,-8388608,-8388608,-8388608,434769,-8388608,-8388608,-8388608
10:43:44.328810,-8388608,-8388608,-8388608,-8388608,431441,-8388608,-8388608,-8388608
10:43:44.328810,-8388608,-8388608,-8388608,-8388608,427091,-8388608,-8388608,-8388608
10:43:44.340561,-8388608,-8388608,-8388608,-8388608,427565,-8388608,-8388608,-8388608
10:43:44.340561,-8388608,-8388608,-8388608,-8388608,429214,-8388608,-8388608,-8388608
10:43:44.340561,-8388608,-8388608,-8388608,-8388608,430381,-8388608,-8388608,-8388608
10:43:44.340561,-8388608,-8388608,-8388608,-8388608,427756,-8388608,-8388608,-8388608
10:43:44.357149,-8388608,-8388608,-8388608,-8388608,423622,-8388608,-8388608,-8388608
10:43:44.357149,-8388608,-8388608,-8388608,-8388608,425389,-8388608,-8388608,-8388608
10:43:44.357149,-8388608,-8388608,-8388608,-8388608,427222,-8388608,-8388608,-8388608
10:43:44.357149,-8388608,-8388608,-8388608,-8388608,428694,-8388608,-8388608,-8388608
10:43:44.373764,-8388608,-8388608,-8388608,-8388608,428481,-8388608,-8388608,-8388608
10:43:44.373764,-8388608,-8388608,-8388608,-8388608,423659,-8388608,-8388608,-8388608
10:43:44.373764,-8388608,-8388608,-8388608,-8388608,421009,-8388608,-8388608,-8388608
10:43:44.373764,-8388608,-8388608,-8388608,-8388608,422189,-8388608,-8388608,-8388608
10:43:44.390454,-8388608,-8388608,-8388608,-8388608,423579,-8388608,-8388608,-8388608
10:43:44.390454,-8388608,-8388608,-8388608,-8388608,423546,-8388608,-8388608,-8388608
10:43:44.390454,-8388608,-8388608,-8388608,-8388608,421744,-8388608,-8388608,-8388608
10:43:44.390454,-8388608,-8388608,-8388608,-8388608,419678,-8388608,-8388608,-8388608
10:43:44.406728,-8388608,-8388608,-8388608,-8388608,419558,-8388608,-8388608,-8388608
10:43:44.407050,-8388608,-8388608,-8388608,-8388608,420684,-8388608,-8388608,-8388608
10:43:44.407050,-8388608,-8388608,-8388608,-8388608,418971,-8388608,-8388608,-8388608
10:43:44.407050,-8388608,-8388608,-8388608,-8388608,415486,-8388608,-8388608,-8388608
10:43:44.422441,-8388608,-8388608,-8388608,-8388608,414914,-8388608,-8388608,-8388608
10:43:44.424070,-8388608,-8388608,-8388608,-8388608,416045,-8388608,-8388608,-8388608
10:43:44.424070,-8388608,-8388608,-8388608,-8388608,416663,-8388608,-8388608,-8388608
10:43:44.424070,-8388608,-8388608,-8388608,-8388608,415939,-8388608,-8388608,-8388608
10:43:44.439974,-8388608,-8388608,-8388608,-8388608,414131,-8388608,-8388608,-8388608
10:43:44.444537,-8388608,-8388608,-8388608,-8388608,412986,-8388608,-8388608,-8388608
10:43:44.446217,-8388608,-8388608,-8388608,-8388608,416850,-8388608,-8388608,-8388608
10:43:44.446217,-8388608,-8388608,-8388608,-8388608,415693,-8388608,-8388608,-8388608
10:43:44.446217,-8388608,-8388608,-8388608,-8388608,413883,-8388608,-8388608,-8388608
10:43:44.457058,-8388608,-8388608,-8388608,-8388608,414054,-8388608,-8388608,-8388608
10:43:44.457058,-8388608,-8388608,-8388608,-8388608,413919,-8388608,-8388608,-8388608
10:43:44.457058,-8388608,-8388608,-8388608,-8388608,416490,-8388608,-8388608,-8388608
10:43:44.457058,-8388608,-8388608,-8388608,-8388608,420719,-8388608,-8388608,-8388608
10:43:44.473547,-8388608,-8388608,-8388608,-8388608,419420,-8388608,-8388608,-8388608
10:43:44.473547,-8388608,-8388608,-8388608,-8388608,417576,-8388608,-8388608,-8388608
10:43:44.473547,-8388608,-8388608,-8388608,-8388608,417496,-8388608,-8388608,-8388608
10:43:44.473547,-8388608,-8388608,-8388608,-8388608,422561,-8388608,-8388608,-8388608
10:43:44.490900,-8388608,-8388608,-8388608,-8388608,428033,-8388608,-8388608,-8388608
10:43:44.490900,-8388608,-8388608,-8388608,-8388608,425276,-8388608,-8388608,-8388608
10:43:44.490900,-8388608,-8388608,-8388608,-8388608,421619,-8388608,-8388608,-8388608
10:43:44.490900,-8388608,-8388608,-8388608,-8388608,423496,-8388608,-8388608,-8388608
10:43:44.505578,-8388608,-8388608,-8388608,-8388608,429424,-8388608,-8388608,-8388608
10:43:44.507109,-8388608,-8388608,-8388608,-8388608,432631,-8388608,-8388608,-8388608
10:43:44.514268,-8388608,-8388608,-8388608,-8388608,431441,-8388608,-8388608,-8388608
10:43:44.514880,-8388608,-8388608,-8388608,-8388608,428808,-8388608,-8388608,-8388608
10:43:44.514880,-8388608,-8388608,-8388608,-8388608,430433,-8388608,-8388608,-8388608
10:43:44.525159,-8388608,-8388608,-8388608,-8388608,433577,-8388608,-8388608,-8388608
10:43:44.530106,-8388608,-8388608,-8388608,-8388608,432860,-8388608,-8388608,-8388608
10:43:44.534041,-8388608,-8388608,-8388608,-8388608,432185,-8388608,-8388608,-8388608
10:43:44.538165,-8388608,-8388608,-8388608,-8388608,432172,-8388608,-8388608,-8388608
10:43:44.542971,-8388608,-8388608,-8388608,-8388608,432488,-8388608,-8388608,-8388608
10:43:44.544462,-8388608,-8388608,-8388608,-8388608,431447,-8388608,-8388608,-8388608
10:43:44.544462,-8388608,-8388608,-8388608,-8388608,434999,-8388608,-8388608,-8388608
10:43:44.544462,-8388608,-8388608,-8388608,-8388608,436264,-8388608,-8388608,-8388608
10:43:44.557038,-8388608,-8388608,-8388608,-8388608,433222,-8388608,-8388608,-8388608
10:43:44.557038,-8388608,-8388608,-8388608,-8388608,430173,-8388608,-8388608,-8388608
10:43:44.557038,-8388608,-8388608,-8388608,-8388608,433265,-8388608,-8388608,-8388608
10:43:44.557038,-8388608,-8388608,-8388608,-8388608,434892,-8388608,-8388608,-8388608
10:43:44.573492,-8388608,-8388608,-8388608,-8388608,433649,-8388608,-8388608,-8388608
10:43:44.573492,-8388608,-8388608,-8388608,-8388608,430373,-8388608,-8388608,-8388608
10:43:44.573492,-8388608,-8388608,-8388608,-8388608,431809,-8388608,-8388608,-8388608
10:43:44.573492,-8388608,-8388608,-8388608,-8388608,435272,-8388608,-8388608,-8388608
10:43:44.590067,-8388608,-8388608,-8388608,-8388608,438185,-8388608,-8388608,-8388608
10:43:44.590577,-8388608,-8388608,-8388608,-8388608,436081,-8388608,-8388608,-8388608
10:43:44.590577,-8388608,-8388608,-8388608,-8388608,432217,-8388608,-8388608,-8388608
10:43:44.590577,-8388608,-8388608,-8388608,-8388608,430885,-8388608,-8388608,-8388608
10:43:44.605665,-8388608,-8388608,-8388608,-8388608,434569,-8388608,-8388608,-8388608
10:43:44.607043,-8388608,-8388608,-8388608,-8388608,434701,-8388608,-8388608,-8388608
10:43:44.607043,-8388608,-8388608,-8388608,-8388608,431469,-8388608,-8388608,-8388608
10:43:44.607043,-8388608,-8388608,-8388608,-8388608,429258,-8388608,-8388608,-8388608
10:43:44.622141,-8388608,-8388608,-8388608,-8388608,430513,-8388608,-8388608,-8388608
10:43:44.623707,-8388608,-8388608,-8388608,-8388608,432477,-8388608,-8388608,-8388608
10:43:44.623707,-8388608,-8388608,-8388608,-8388608,435269,-8388608,-8388608,-8388608
10:43:44.623707,-8388608,-8388608,-8388608,-8388608,434171,-8388608,-8388608,-8388608
10:43:44.623707,-8388608,-8388608,-8388608,-8388608,429722,-8388608,-8388608,-8388608
10:43:44.640589,-8388608,-8388608,-8388608,-8388608,430948,-8388608,-8388608,-8388608
10:43:44.640589,-8388608,-8388608,-8388608,-8388608,433060,-8388608,-8388608,-8388608
10:43:44.640589,-8388608,-8388608,-8388608,-8388608,434721,-8388608,-8388608,-8388608
10:43:44.655600,-8388608,-8388608,-8388608,-8388608,432731,-8388608,-8388608,-8388608
10:43:44.660133,-8388608,-8388608,-8388608,-8388608,432534,-8388608,-8388608,-8388608
10:43:44.662773,-8388608,-8388608,-8388608,-8388608,430730,-8388608,-8388608,-8388608
10:43:44.662773,-8388608,-8388608,-8388608,-8388608,432829,-8388608,-8388608,-8388608
10:43:44.662773,-8388608,-8388608,-8388608,-8388608,436589,-8388608,-8388608,-8388608
10:43:44.673381,-8388608,-8388608,-8388608,-8388608,435816,-8388608,-8388608,-8388608
10:43:44.673381,-8388608,-8388608,-8388608,-8388608,430014,-8388608,-8388608,-8388608
10:43:44.673381,-8388608,-8388608,-8388608,-8388608,429775,-8388608,-8388608,-8388608
10:43:44.673381,-8388608,-8388608,-8388608,-8388608,433401,-8388608,-8388608,-8388608
10:43:44.689914,-8388608,-8388608,-8388608,-8388608,436294,-8388608,-8388608,-8388608
10:43:44.689914,-8388608,-8388608,-8388608,-8388608,435647,-8388608,-8388608,-8388608
10:43:44.689914,-8388608,-8388608,-8388608,-8388608,431853,-8388608,-8388608,-8388608
10:43:44.689914,-8388608,-8388608,-8388608,-8388608,428879,-8388608,-8388608,-8388608
10:43:44.706833,-8388608,-8388608,-8388608,-8388608,431911,-8388608,-8388608,-8388608
10:43:44.707401,-8388608,-8388608,-8388608,-8388608,437141,-8388608,-8388608,-8388608
10:43:44.707401,-8388608,-8388608,-8388608,-8388608,434388,-8388608,-8388608,-8388608
10:43:44.707401,-8388608,-8388608,-8388608,-8388608,431221,-8388608,-8388608,-8388608
10:43:44.723762,-8388608,-8388608,-8388608,-8388608,431124,-8388608,-8388608,-8388608
10:43:44.723762,-8388608,-8388608,-8388608,-8388608,433160,-8388608,-8388608,-8388608
10:43:44.731719,-8388608,-8388608,-8388608,-8388608,435473,-8388608,-8388608,-8388608
10:43:44.731719,-8388608,-8388608,-8388608,-8388608,434109,-8388608,-8388608,-8388608
10:43:44.738553,-8388608,-8388608,-8388608,-8388608,430753,-8388608,-8388608,-8388608
10:43:44.743105,-8388608,-8388608,-8388608,-8388608,432418,-8388608,-8388608,-8388608
10:43:44.746044,-8388608,-8388608,-8388608,-8388608,436876,-8388608,-8388608,-8388608
10:43:44.752745,-8388608,-8388608,-8388608,-8388608,438781,-8388608,-8388608,-8388608
10:43:44.755791,-8388608,-8388608,-8388608,-8388608,435140,-8388608,-8388608,-8388608
10:43:44.758373,-8388608,-8388608,-8388608,-8388608,431080,-8388608,-8388608,-8388608
10:43:44.760229,-8388608,-8388608,-8388608,-8388608,431271,-8388608,-8388608,-8388608
10:43:44.760229,-8388608,-8388608,-8388608,-8388608,435868,-8388608,-8388608,-8388608
10:43:44.760229,-8388608,-8388608,-8388608,-8388608,437718,-8388608,-8388608,-8388608
10:43:44.773045,-8388608,-8388608,-8388608,-8388608,436308,-8388608,-8388608,-8388608
10:43:44.773045,-8388608,-8388608,-8388608,-8388608,431319,-8388608,-8388608,-8388608
10:43:44.773045,-8388608,-8388608,-8388608,-8388608,431058,-8388608,-8388608,-8388608
10:43:44.773045,-8388608,-8388608,-8388608,-8388608,434548,-8388608,-8388608,-8388608
10:43:44.790125,-8388608,-8388608,-8388608,-8388608,436831,-8388608,-8388608,-8388608
10:43:44.790125,-8388608,-8388608,-8388608,-8388608,438793,-8388608,-8388608,-8388608
10:43:44.790125,-8388608,-8388608,-8388608,-8388608,433152,-8388608,-8388608,-8388608
10:43:44.790125,-8388608,-8388608,-8388608,-8388608,432763,-8388608,-8388608,-8388608
10:43:44.806502,-8388608,-8388608,-8388608,-8388608,436631,-8388608,-8388608,-8388608
10:43:44.807135,-8388608,-8388608,-8388608,-8388608,437369,-8388608,-8388608,-8388608
10:43:44.807135,-8388608,-8388608,-8388608,-8388608,433656,-8388608,-8388608,-8388608
10:43:44.807135,-8388608,-8388608,-8388608,-8388608,433106,-8388608,-8388608,-8388608
10:43:44.822076,-8388608,-8388608,-8388608,-8388608,432838,-8388608,-8388608,-8388608
10:43:44.823631,-8388608,-8388608,-8388608,-8388608,435518,-8388608,-8388608,-8388608
10:43:44.823631,-8388608,-8388608,-8388608,-8388608,438011,-8388608,-8388608,-8388608
10:43:44.823631,-8388608,-8388608,-8388608,-8388608,436399,-8388608,-8388608,-8388608
10:43:44.823631,-8388608,-8388608,-8388608,-8388608,434013,-8388608,-8388608,-8388608
10:43:44.840414,-8388608,-8388608,-8388608,-8388608,435194,-8388608,-8388608,-8388608
10:43:44.840414,-8388608,-8388608,-8388608,-8388608,438424,-8388608,-8388608,-8388608
10:43:44.840414,-8388608,-8388608,-8388608,-8388608,439412,-8388608,-8388608,-8388608
10:43:44.840414,-8388608,-8388608,-8388608,-8388608,435871,-8388608,-8388608,-8388608
10:43:44.857353,-8388608,-8388608,-8388608,-8388608,431269,-8388608,-8388608,-8388608
10:43:44.857353,-8388608,-8388608,-8388608,-8388608,433079,-8388608,-8388608,-8388608
10:43:44.857353,-8388608,-8388608,-8388608,-8388608,436103,-8388608,-8388608,-8388608
10:43:44.857353,-8388608,-8388608,-8388608,-8388608,438950,-8388608,-8388608,-8388608
10:43:44.874268,-8388608,-8388608,-8388608,-8388608,436234,-8388608,-8388608,-8388608
10:43:44.876810,-8388608,-8388608,-8388608,-8388608,432811,-8388608,-8388608,-8388608
10:43:44.876810,-8388608,-8388608,-8388608,-8388608,433566,-8388608,-8388608,-8388608
10:43:44.876810,-8388608,-8388608,-8388608,-8388608,436278,-8388608,-8388608,-8388608
10:43:44.889570,-8388608,-8388608,-8388608,-8388608,437650,-8388608,-8388608,-8388608
10:43:44.889570,-8388608,-8388608,-8388608,-8388608,435716,-8388608,-8388608,-8388608
10:43:44.889570,-8388608,-8388608,-8388608,-8388608,432033,-8388608,-8388608,-8388608
10:43:44.889570,-8388608,-8388608,-8388608,-8388608,432299,-8388608,-8388608,-8388608
10:43:44.906266,-8388608,-8388608,-8388608,-8388608,438815,-8388608,-8388608,-8388608
10:43:44.906266,-8388608,-8388608,-8388608,-8388608,441241,-8388608,-8388608,-8388608
10:43:44.906266,-8388608,-8388608,-8388608,-8388608,437553,-8388608,-8388608,-8388608
10:43:44.906266,-8388608,-8388608,-8388608,-8388608,432509,-8388608,-8388608,-8388608
10:43:44.921741,-8388608,-8388608,-8388608,-8388608,433018,-8388608,-8388608,-8388608
10:43:44.923008,-8388608,-8388608,-8388608,-8388608,436303,-8388608,-8388608,-8388608
10:43:44.923008,-8388608,-8388608,-8388608,-8388608,437577,-8388608,-8388608,-8388608
10:43:44.923008,-8388608,-8388608,-8388608,-8388608,436116,-8388608,-8388608,-8388608
10:43:44.923008,-8388608,-8388608,-8388608,-8388608,433913,-8388608,-8388608,-8388608
10:43:44.939878,-8388608,-8388608,-8388608,-8388608,434023,-8388608,-8388608,-8388608
10:43:44.945299,-8388608,-8388608,-8388608,-8388608,436513,-8388608,-8388608,-8388608
10:43:44.946084,-8388608,-8388608,-8388608,-8388608,437031,-8388608,-8388608,-8388608
10:43:44.946084,-8388608,-8388608,-8388608,-8388608,434025,-8388608,-8388608,-8388608
10:43:44.957384,-8388608,-8388608,-8388608,-8388608,430124,-8388608,-8388608,-8388608
10:43:44.962543,-8388608,-8388608,-8388608,-8388608,431586,-8388608,-8388608,-8388608
10:43:44.966576,-8388608,-8388608,-8388608,-8388608,437086,-8388608,-8388608,-8388608
10:43:44.971797,-8388608,-8388608,-8388608,-8388608,439583,-8388608,-8388608,-8388608
10:43:44.975079,-8388608,-8388608,-8388608,-8388608,434004,-8388608,-8388608,-8388608
10:43:44.978057,-8388608,-8388608,-8388608,-8388608,427137,-8388608,-8388608,-8388608
10:43:44.978057,-8388608,-8388608,-8388608,-8388608,428488,-8388608,-8388608,-8388608
10:43:44.978057,-8388608,-8388608,-8388608,-8388608,434154,-8388608,-8388608,-8388608
10:43:44.989440,-8388608,-8388608,-8388608,-8388608,436514,-8388608,-8388608,-8388608
10:43:44.990018,-8388608,-8388608,-8388608,-8388608,433586,-8388608,-8388608,-8388608
10:43:44.990018,-8388608,-8388608,-8388608,-8388608,428545,-8388608,-8388608,-8388608
10:43:44.990018,-8388608,-8388608,-8388608,-8388608,430173,-8388608,-8388608,-8388608
10:43:45.006293,-8388608,-8388608,-8388608,-8388608,435020,-8388608,-8388608,-8388608
10:43:45.006293,-8388608,-8388608,-8388608,-8388608,434378,-8388608,-8388608,-8388608
10:43:45.006293,-8388608,-8388608,-8388608,-8388608,433398,-8388608,-8388608,-8388608
10:43:45.006293,-8388608,-8388608,-8388608,-8388608,429639,-8388608,-8388608,-8388608
10:43:45.006293,-8388608,-8388608,-8388608,-8388608,431270,-8388608,-8388608,-8388608
10:43:45.023312,-8388608,-8388608,-8388608,-8388608,437532,-8388608,-8388608,-8388608
10:43:45.023312,-8388608,-8388608,-8388608,-8388608,439883,-8388608,-8388608,-8388608
10:43:45.023312,-8388608,-8388608,-8388608,-8388608,438589,-8388608,-8388608,-8388608
10:43:45.023312,-8388608,-8388608,-8388608,-8388608,435197,-8388608,-8388608,-8388608
10:43:45.040366,-8388608,-8388608,-8388608,-8388608,436591,-8388608,-8388608,-8388608
10:43:45.040366,-8388608,-8388608,-8388608,-8388608,437513,-8388608,-8388608,-8388608
10:43:45.040366,-8388608,-8388608,-8388608,-8388608,437813,-8388608,-8388608,-8388608
10:43:45.040366,-8388608,-8388608,-8388608,-8388608,437412,-8388608,-8388608,-8388608
10:43:45.057574,-8388608,-8388608,-8388608,-8388608,434013,-8388608,-8388608,-8388608
10:43:45.057574,-8388608,-8388608,-8388608,-8388608,435045,-8388608,-8388608,-8388608
10:43:45.057574,-8388608,-8388608,-8388608,-8388608,439641,-8388608,-8388608,-8388608
10:43:45.057574,-8388608,-8388608,-8388608,-8388608,438878,-8388608,-8388608,-8388608
10:43:45.073180,-8388608,-8388608,-8388608,-8388608,437676,-8388608,-8388608,-8388608
10:43:45.073867,-8388608,-8388608,-8388608,-8388608,433766,-8388608,-8388608,-8388608
10:43:45.073867,-8388608,-8388608,-8388608,-8388608,435436,-8388608,-8388608,-8388608
10:43:45.073867,-8388608,-8388608,-8388608,-8388608,438269,-8388608,-8388608,-8388608
10:43:45.088877,-8388608,-8388608,-8388608,-8388608,439742,-8388608,-8388608,-8388608
10:43:45.092792,-8388608,-8388608,-8388608,-8388608,436160,-8388608,-8388608,-8388608
10:43:45.095444,-8388608,-8388608,-8388608,-8388608,431093,-8388608,-8388608,-8388608
10:43:45.095444,-8388608,-8388608,-8388608,-8388608,423594,-8388608,-8388608,-8388608
10:43:45.104968,-8388608,-8388608,-8388608,-8388608,417149,-8388608,-8388608,-8388608
10:43:45.106107,-8388608,-8388608,-8388608,-8388608,411325,-8388608,-8388608,-8388608
10:43:45.106107,-8388608,-8388608,-8388608,-8388608,402382,-8388608,-8388608,-8388608
10:43:45.106107,-8388608,-8388608,-8388608,-8388608,394788,-8388608,-8388608,-8388608
10:43:45.106107,-8388608,-8388608,-8388608,-8388608,397503,-8388608,-8388608,-8388608
10:43:45.122952,-8388608,-8388608,-8388608,-8388608,413435,-8388608,-8388608,-8388608
10:43:45.122952,-8388608,-8388608,-8388608,-8388608,433587,-8388608,-8388608,-8388608
10:43:45.122952,-8388608,-8388608,-8388608,-8388608,447908,-8388608,-8388608,-8388608
10:43:45.138420,-8388608,-8388608,-8388608,-8388608,446100,-8388608,-8388608,-8388608
10:43:45.143236,-8388608,-8388608,-8388608,-8388608,441709,-8388608,-8388608,-8388608
10:43:45.145410,-8388608,-8388608,-8388608,-8388608,443160,-8388608,-8388608,-8388608
10:43:45.145410,-8388608,-8388608,-8388608,-8388608,443254,-8388608,-8388608,-8388608
10:43:45.145410,-8388608,-8388608,-8388608,-8388608,439294,-8388608,-8388608,-8388608
10:43:45.157670,-8388608,-8388608,-8388608,-8388608,432567,-8388608,-8388608,-8388608
