10:45:17.859309,-8388608,-8388608,-8388608,-8388608,387905,-8388608,-8388608,-8388608
10:45:17.859309,-8388608,-8388608,-8388608,-8388608,390716,-8388608,-8388608,-8388608
10:45:17.874277,-8388608,-8388608,-8388608,-8388608,392040,-8388608,-8388608,-8388608
10:45:17.876485,-8388608,-8388608,-8388608,-8388608,388362,-8388608,-8388608,-8388608
10:45:17.876485,-8388608,-8388608,-8388608,-8388608,384350,-8388608,-8388608,-8388608
10:45:17.876485,-8388608,-8388608,-8388608,-8388608,384048,-8388608,-8388608,-8388608
10:45:17.876485,-8388608,-8388608,-8388608,-8388608,384948,-8388608,-8388608,-8388608
10:45:17.892894,-8388608,-8388608,-8388608,-8388608,384597,-8388608,-8388608,-8388608
10:45:17.892894,-8388608,-8388608,-8388608,-8388608,384309,-8388608,-8388608,-8388608
10:45:17.899906,-8388608,-8388608,-8388608,-8388608,382433,-8388608,-8388608,-8388608
10:45:17.899906,-8388608,-8388608,-8388608,-8388608,384464,-8388608,-8388608,-8388608
10:45:17.909805,-8388608,-8388608,-8388608,-8388608,383105,-8388608,-8388608,-8388608
10:45:17.909805,-8388608,-8388608,-8388608,-8388608,380793,-8388608,-8388608,-8388608
10:45:17.909805,-8388608,-8388608,-8388608,-8388608,381984,-8388608,-8388608,-8388608
10:45:17.909805,-8388608,-8388608,-8388608,-8388608,379708,-8388608,-8388608,-8388608
10:45:17.926089,-8388608,-8388608,-8388608,-8388608,387634,-8388608,-8388608,-8388608
10:45:17.926089,-8388608,-8388608,-8388608,-8388608,386151,-8388608,-8388608,-8388608
10:45:17.926089,-8388608,-8388608,-8388608,-8388608,382693,-8388608,-8388608,-8388608
10:45:17.926089,-8388608,-8388608,-8388608,-8388608,386161,-8388608,-8388608,-8388608
10:45:17.941099,-8388608,-8388608,-8388608,-8388608,385025,-8388608,-8388608,-8388608
10:45:17.946030,-8388608,-8388608,-8388608,-8388608,383231,-8388608,-8388608,-8388608
10:45:17.947923,-8388608,-8388608,-8388608,-8388608,381168,-8388608,-8388608,-8388608
10:45:17.947923,-8388608,-8388608,-8388608,-8388608,377981,-8388608,-8388608,-8388608
10:45:17.947923,-8388608,-8388608,-8388608,-8388608,381701,-8388608,-8388608,-8388608
10:45:17.958661,-8388608,-8388608,-8388608,-8388608,383501,-8388608,-8388608,-8388608
10:45:17.958661,-8388608,-8388608,-8388608,-8388608,381189,-8388608,-8388608,-8388608
10:45:17.958661,-8388608,-8388608,-8388608,-8388608,380536,-8388608,-8388608,-8388608
10:45:17.958661,-8388608,-8388608,-8388608,-8388608,379260,-8388608,-8388608,-8388608
10:45:17.975431,-8388608,-8388608,-8388608,-8388608,378823,-8388608,-8388608,-8388608
10:45:17.975431,-8388608,-8388608,-8388608,-8388608,378836,-8388608,-8388608,-8388608
10:45:17.975431,-8388608,-8388608,-8388608,-8388608,377766,-8388608,-8388608,-8388608
10:45:17.975431,-8388608,-8388608,-8388608,-8388608,372822,-8388608,-8388608,-8388608
10:45:17.992317,-8388608,-8388608,-8388608,-8388608,374777,-8388608,-8388608,-8388608
10:45:17.992317,-8388608,-8388608,-8388608,-8388608,373391,-8388608,-8388608,-8388608
10:45:17.999828,-8388608,-8388608,-8388608,-8388608,373258,-8388608,-8388608,-8388608
10:45:17.999828,-8388608,-8388608,-8388608,-8388608,377386,-8388608,-8388608,-8388608
10:45:18.009161,-8388608,-8388608,-8388608,-8388608,376984,-8388608,-8388608,-8388608
10:45:18.009161,-8388608,-8388608,-8388608,-8388608,375629,-8388608,-8388608,-8388608
10:45:18.009161,-8388608,-8388608,-8388608,-8388608,378003,-8388608,-8388608,-8388608
10:45:18.009161,-8388608,-8388608,-8388608,-8388608,376783,-8388608,-8388608,-8388608
10:45:18.026004,-8388608,-8388608,-8388608,-8388608,373756,-8388608,-8388608,-8388608
10:45:18.026004,-8388608,-8388608,-8388608,-8388608,373838,-8388608,-8388608,-8388608
10:45:18.026004,-8388608,-8388608,-8388608,-8388608,376708,-8388608,-8388608,-8388608
10:45:18.026004,-8388608,-8388608,-8388608,-8388608,377319,-8388608,-8388608,-8388608
10:45:18.026004,-8388608,-8388608,-8388608,-8388608,375513,-8388608,-8388608,-8388608
10:45:18.046121,-8388608,-8388608,-8388608,-8388608,374647,-8388608,-8388608,-8388608
10:45:18.048782,-8388608,-8388608,-8388608,-8388608,374446,-8388608,-8388608,-8388608
10:45:18.048782,-8388608,-8388608,-8388608,-8388608,376620,-8388608,-8388608,-8388608
10:45:18.048782,-8388608,-8388608,-8388608,-8388608,376015,-8388608,-8388608,-8388608
10:45:18.059077,-8388608,-8388608,-8388608,-8388608,380409,-8388608,-8388608,-8388608
10:45:18.059077,-8388608,-8388608,-8388608,-8388608,384822,-8388608,-8388608,-8388608
10:45:18.059077,-8388608,-8388608,-8388608,-8388608,380948,-8388608,-8388608,-8388608
10:45:18.059077,-8388608,-8388608,-8388608,-8388608,384428,-8388608,-8388608,-8388608
10:45:18.075698,-8388608,-8388608,-8388608,-8388608,384989,-8388608,-8388608,-8388608
10:45:18.075698,-8388608,-8388608,-8388608,-8388608,377714,-8388608,-8388608,-8388608
10:45:18.075698,-8388608,-8388608,-8388608,-8388608,381601,-8388608,-8388608,-8388608
10:45:18.075698,-8388608,-8388608,-8388608,-8388608,389084,-8388608,-8388608,-8388608
10:45:18.092247,-8388608,-8388608,-8388608,-8388608,386829,-8388608,-8388608,-8388608
10:45:18.097055,-8388608,-8388608,-8388608,-8388608,386184,-8388608,-8388608,-8388608
10:45:18.100191,-8388608,-8388608,-8388608,-8388608,386329,-8388608,-8388608,-8388608
10:45:18.100191,-8388608,-8388608,-8388608,-8388608,387594,-8388608,-8388608,-8388608
10:45:18.111321,-8388608,-8388608,-8388608,-8388608,387051,-8388608,-8388608,-8388608
10:45:18.114126,-8388608,-8388608,-8388608,-8388608,382966,-8388608,-8388608,-8388608
10:45:18.114126,-8388608,-8388608,-8388608,-8388608,380990,-8388608,-8388608,-8388608
10:45:18.114126,-8388608,-8388608,-8388608,-8388608,385360,-8388608,-8388608,-8388608
10:45:18.125954,-8388608,-8388608,-8388608,-8388608,388551,-8388608,-8388608,-8388608
10:45:18.129771,-8388608,-8388608,-8388608,-8388608,388208,-8388608,-8388608,-8388608
10:45:18.134464,-8388608,-8388608,-8388608,-8388608,390834,-8388608,-8388608,-8388608
10:45:18.137880,-8388608,-8388608,-8388608,-8388608,389571,-8388608,-8388608,-8388608
10:45:18.139866,-8388608,-8388608,-8388608,-8388608,384278,-8388608,-8388608,-8388608
10:45:18.145050,-8388608,-8388608,-8388608,-8388608,382173,-8388608,-8388608,-8388608
10:45:18.146935,-8388608,-8388608,-8388608,-8388608,386287,-8388608,-8388608,-8388608
10:45:18.146935,-8388608,-8388608,-8388608,-8388608,387499,-8388608,-8388608,-8388608
10:45:18.157454,-8388608,-8388608,-8388608,-8388608,388775,-8388608,-8388608,-8388608
10:45:18.158875,-8388608,-8388608,-8388608,-8388608,386168,-8388608,-8388608,-8388608
10:45:18.158875,-8388608,-8388608,-8388608,-8388608,387907,-8388608,-8388608,-8388608
10:45:18.158875,-8388608,-8388608,-8388608,-8388608,386159,-8388608,-8388608,-8388608
10:45:18.174219,-8388608,-8388608,-8388608,-8388608,382334,-8388608,-8388608,-8388608
10:45:18.175880,-8388608,-8388608,-8388608,-8388608,386941,-8388608,-8388608,-8388608
10:45:18.175880,-8388608,-8388608,-8388608,-8388608,388368,-8388608,-8388608,-8388608
10:45:18.175880,-8388608,-8388608,-8388608,-8388608,387971,-8388608,-8388608,-8388608
10:45:18.175880,-8388608,-8388608,-8388608,-8388608,386107,-8388608,-8388608,-8388608
10:45:18.192194,-8388608,-8388608,-8388608,-8388608,381376,-8388608,-8388608,-8388608
10:45:18.192194,-8388608,-8388608,-8388608,-8388608,383654,-8388608,-8388608,-8388608
10:45:18.200264,-8388608,-8388608,-8388608,-8388608,389079,-8388608,-8388608,-8388608
10:45:18.200264,-8388608,-8388608,-8388608,-8388608,386774,-8388608,-8388608,-8388608
10:45:18.209052,-8388608,-8388608,-8388608,-8388608,384104,-8388608,-8388608,-8388608
10:45:18.209052,-8388608,-8388608,-8388608,-8388608,384304,-8388608,-8388608,-8388608
10:45:18.209052,-8388608,-8388608,-8388608,-8388608,384896,-8388608,-8388608,-8388608
10:45:18.209052,-8388608,-8388608,-8388608,-8388608,382011,-8388608,-8388608,-8388608
10:45:18.224234,-8388608,-8388608,-8388608,-8388608,380461,-8388608,-8388608,-8388608
10:45:18.225873,-8388608,-8388608,-8388608,-8388608,382643,-8388608,-8388608,-8388608
10:45:18.225873,-8388608,-8388608,-8388608,-8388608,385941,-8388608,-8388608,-8388608
10:45:18.225873,-8388608,-8388608,-8388608,-8388608,386851,-8388608,-8388608,-8388608
10:45:18.241470,-8388608,-8388608,-8388608,-8388608,386734,-8388608,-8388608,-8388608
10:45:18.242115,-8388608,-8388608,-8388608,-8388608,388639,-8388608,-8388608,-8388608
10:45:18.242115,-8388608,-8388608,-8388608,-8388608,388536,-8388608,-8388608,-8388608
10:45:18.242115,-8388608,-8388608,-8388608,-8388608,385209,-8388608,-8388608,-8388608
10:45:18.257289,-8388608,-8388608,-8388608,-8388608,383469,-8388608,-8388608,-8388608
10:45:18.261368,-8388608,-8388608,-8388608,-8388608,383901,-8388608,-8388608,-8388608
10:45:18.264773,-8388608,-8388608,-8388608,-8388608,385020,-8388608,-8388608,-8388608
10:45:18.264773,-8388608,-8388608,-8388608,-8388608,387128,-8388608,-8388608,-8388608
10:45:18.273953,-8388608,-8388608,-8388608,-8388608,386226,-8388608,-8388608,-8388608
10:45:18.275026,-8388608,-8388608,-8388608,-8388608,383153,-8388608,-8388608,-8388608
10:45:18.275026,-8388608,-8388608,-8388608,-8388608,385954,-8388608,-8388608,-8388608
10:45:18.275026,-8388608,-8388608,-8388608,-8388608,387673,-8388608,-8388608,-8388608
10:45:18.275026,-8388608,-8388608,-8388608,-8388608,384223,-8388608,-8388608,-8388608
10:45:18.291325,-8388608,-8388608,-8388608,-8388608,383099,-8388608,-8388608,-8388608
10:45:18.291325,-8388608,-8388608,-8388608,-8388608,383726,-8388608,-8388608,-8388608
10:45:18.300345,-8388608,-8388608,-8388608,-8388608,379861,-8388608,-8388608,-8388608
10:45:18.300345,-8388608,-8388608,-8388608,-8388608,383413,-8388608,-8388608,-8388608
10:45:18.307850,-8388608,-8388608,-8388608,-8388608,385043,-8388608,-8388608,-8388608
10:45:18.311272,-8388608,-8388608,-8388608,-8388608,388734,-8388608,-8388608,-8388608
10:45:18.311272,-8388608,-8388608,-8388608,-8388608,388428,-8388608,-8388608,-8388608
10:45:18.311272,-8388608,-8388608,-8388608,-8388608,384880,-8388608,-8388608,-8388608
10:45:18.324841,-8388608,-8388608,-8388608,-8388608,382707,-8388608,-8388608,-8388608
10:45:18.329252,-8388608,-8388608,-8388608,-8388608,383661,-8388608,-8388608,-8388608
10:45:18.333712,-8388608,-8388608,-8388608,-8388608,380756,-8388608,-8388608,-8388608
10:45:18.338715,-8388608,-8388608,-8388608,-8388608,385493,-8388608,-8388608,-8388608
10:45:18.341426,-8388608,-8388608,-8388608,-8388608,382691,-8388608,-8388608,-8388608
10:45:18.341426,-8388608,-8388608,-8388608,-8388608,380204,-8388608,-8388608,-8388608
10:45:18.341426,-8388608,-8388608,-8388608,-8388608,384554,-8388608,-8388608,-8388608
10:45:18.341426,-8388608,-8388608,-8388608,-8388608,384848,-8388608,-8388608,-8388608
10:45:18.358881,-8388608,-8388608,-8388608,-8388608,385728,-8388608,-8388608,-8388608
10:45:18.358881,-8388608,-8388608,-8388608,-8388608,385891,-8388608,-8388608,-8388608
10:45:18.358881,-8388608,-8388608,-8388608,-8388608,383580,-8388608,-8388608,-8388608
10:45:18.358881,-8388608,-8388608,-8388608,-8388608,379544,-8388608,-8388608,-8388608
10:45:18.358881,-8388608,-8388608,-8388608,-8388608,378446,-8388608,-8388608,-8388608
10:45:18.377280,-8388608,-8388608,-8388608,-8388608,382201,-8388608,-8388608,-8388608
10:45:18.381402,-8388608,-8388608,-8388608,-8388608,384586,-8388608,-8388608,-8388608
10:45:18.381402,-8388608,-8388608,-8388608,-8388608,382629,-8388608,-8388608,-8388608
10:45:18.381402,-8388608,-8388608,-8388608,-8388608,383744,-8388608,-8388608,-8388608
10:45:18.391814,-8388608,-8388608,-8388608,-8388608,386545,-8388608,-8388608,-8388608
10:45:18.391814,-8388608,-8388608,-8388608,-8388608,386277,-8388608,-8388608,-8388608
10:45:18.400371,-8388608,-8388608,-8388608,-8388608,385079,-8388608,-8388608,-8388608
10:45:18.400371,-8388608,-8388608,-8388608,-8388608,385897,-8388608,-8388608,-8388608
10:45:18.408944,-8388608,-8388608,-8388608,-8388608,384534,-8388608,-8388608,-8388608
10:45:18.408944,-8388608,-8388608,-8388608,-8388608,382753,-8388608,-8388608,-8388608
10:45:18.408944,-8388608,-8388608,-8388608,-8388608,382190,-8388608,-8388608,-8388608
10:45:18.408944,-8388608,-8388608,-8388608,-8388608,387044,-8388608,-8388608,-8388608
10:45:18.425145,-8388608,-8388608,-8388608,-8388608,387674,-8388608,-8388608,-8388608
10:45:18.425145,-8388608,-8388608,-8388608,-8388608,388563,-8388608,-8388608,-8388608
10:45:18.425145,-8388608,-8388608,-8388608,-8388608,385131,-8388608,-8388608,-8388608
10:45:18.425145,-8388608,-8388608,-8388608,-8388608,384788,-8388608,-8388608,-8388608
10:45:18.441351,-8388608,-8388608,-8388608,-8388608,382185,-8388608,-8388608,-8388608
10:45:18.441880,-8388608,-8388608,-8388608,-8388608,385635,-8388608,-8388608,-8388608
10:45:18.441880,-8388608,-8388608,-8388608,-8388608,386129,-8388608,-8388608,-8388608
10:45:18.441880,-8388608,-8388608,-8388608,-8388608,386633,-8388608,-8388608,-8388608
10:45:18.457210,-8388608,-8388608,-8388608,-8388608,388772,-8388608,-8388608,-8388608
10:45:18.459002,-8388608,-8388608,-8388608,-8388608,383316,-8388608,-8388608,-8388608
10:45:18.459002,-8388608,-8388608,-8388608,-8388608,379114,-8388608,-8388608,-8388608
10:45:18.459002,-8388608,-8388608,-8388608,-8388608,377242,-8388608,-8388608,-8388608
10:45:18.473640,-8388608,-8388608,-8388608,-8388608,371575,-8388608,-8388608,-8388608
10:45:18.476718,-8388608,-8388608,-8388608,-8388608,364813,-8388608,-8388608,-8388608
10:45:18.480694,-8388608,-8388608,-8388608,-8388608,358294,-8388608,-8388608,-8388608
10:45:18.481424,-8388608,-8388608,-8388608,-8388608,354939,-8388608,-8388608,-8388608
10:45:18.481424,-8388608,-8388608,-8388608,-8388608,360130,-8388608,-8388608,-8388608
10:45:18.491691,-8388608,-8388608,-8388608,-8388608,379327,-8388608,-8388608,-8388608
10:45:18.491691,-8388608,-8388608,-8388608,-8388608,392104,-8388608,-8388608,-8388608
10:45:18.500799,-8388608,-8388608,-8388608,-8388608,395303,-8388608,-8388608,-8388608
10:45:18.500799,-8388608,-8388608,-8388608,-8388608,396019,-8388608,-8388608,-8388608
10:45:18.508784,-8388608,-8388608,-8388608,-8388608,393737,-8388608,-8388608,-8388608
10:45:18.513547,-8388608,-8388608,-8388608,-8388608,388668,-8388608,-8388608,-8388608
10:45:18.513547,-8388608,-8388608,-8388608,-8388608,388072,-8388608,-8388608,-8388608
10:45:18.524579,-8388608,-8388608,-8388608,-8388608,388123,-8388608,-8388608,-8388608
10:45:18.527545,-8388608,-8388608,-8388608,-8388608,382981,-8388608,-8388608,-8388608
10:45:18.530906,-8388608,-8388608,-8388608,-8388608,382953,-8388608,-8388608,-8388608
10:45:18.535360,-8388608,-8388608,-8388608,-8388608,384323,-8388608,-8388608,-8388608
10:45:18.538031,-8388608,-8388608,-8388608,-8388608,385201,-8388608,-8388608,-8388608
10:45:18.540568,-8388608,-8388608,-8388608,-8388608,382505,-8388608,-8388608,-8388608
10:45:18.541488,-8388608,-8388608,-8388608,-8388608,382954,-8388608,-8388608,-8388608
10:45:18.541488,-8388608,-8388608,-8388608,-8388608,388538,-8388608,-8388608,-8388608
10:45:18.541488,-8388608,-8388608,-8388608,-8388608,383066,-8388608,-8388608,-8388608
10:45:18.556832,-8388608,-8388608,-8388608,-8388608,375731,-8388608,-8388608,-8388608
10:45:18.560460,-8388608,-8388608,-8388608,-8388608,375643,-8388608,-8388608,-8388608
10:45:18.560460,-8388608,-8388608,-8388608,-8388608,383023,-8388608,-8388608,-8388608
10:45:18.560460,-8388608,-8388608,-8388608,-8388608,386109,-8388608,-8388608,-8388608
10:45:18.560460,-8388608,-8388608,-8388608,-8388608,384558,-8388608,-8388608,-8388608
10:45:18.574819,-8388608,-8388608,-8388608,-8388608,383663,-8388608,-8388608,-8388608
10:45:18.574819,-8388608,-8388608,-8388608,-8388608,381306,-8388608,-8388608,-8388608
10:45:18.574819,-8388608,-8388608,-8388608,-8388608,379899,-8388608,-8388608,-8388608
10:45:18.574819,-8388608,-8388608,-8388608,-8388608,379726,-8388608,-8388608,-8388608
10:45:18.592357,-8388608,-8388608,-8388608,-8388608,384817,-8388608,-8388608,-8388608
10:45:18.595372,-8388608,-8388608,-8388608,-8388608,385017,-8388608,-8388608,-8388608
10:45:18.600883,-8388608,-8388608,-8388608,-8388608,381107,-8388608,-8388608,-8388608
10:45:18.600883,-8388608,-8388608,-8388608,-8388608,377273,-8388608,-8388608,-8388608
10:45:18.607600,-8388608,-8388608,-8388608,-8388608,380244,-8388608,-8388608,-8388608
10:45:18.607600,-8388608,-8388608,-8388608,-8388608,381826,-8388608,-8388608,-8388608
10:45:18.607600,-8388608,-8388608,-8388608,-8388608,379953,-8388608,-8388608,-8388608
10:45:18.607600,-8388608,-8388608,-8388608,-8388608,376939,-8388608,-8388608,-8388608
10:45:18.624729,-8388608,-8388608,-8388608,-8388608,376101,-8388608,-8388608,-8388608
10:45:18.624729,-8388608,-8388608,-8388608,-8388608,384568,-8388608,-8388608,-8388608
10:45:18.624729,-8388608,-8388608,-8388608,-8388608,380854,-8388608,-8388608,-8388608
10:45:18.624729,-8388608,-8388608,-8388608,-8388608,380367,-8388608,-8388608,-8388608
10:45:18.640134,-8388608,-8388608,-8388608,-8388608,376604,-8388608,-8388608,-8388608
10:45:18.641482,-8388608,-8388608,-8388608,-8388608,375956,-8388608,-8388608,-8388608
10:45:18.641482,-8388608,-8388608,-8388608,-8388608,379894,-8388608,-8388608,-8388608
10:45:18.641482,-8388608,-8388608,-8388608,-8388608,380063,-8388608,-8388608,-8388608
10:45:18.656856,-8388608,-8388608,-8388608,-8388608,378486,-8388608,-8388608,-8388608
10:45:18.658411,-8388608,-8388608,-8388608,-8388608,375927,-8388608,-8388608,-8388608
10:45:18.658411,-8388608,-8388608,-8388608,-8388608,374283,-8388608,-8388608,-8388608
10:45:18.658411,-8388608,-8388608,-8388608,-8388608,375061,-8388608,-8388608,-8388608
10:45:18.673500,-8388608,-8388608,-8388608,-8388608,375989,-8388608,-8388608,-8388608
10:45:18.674997,-8388608,-8388608,-8388608,-8388608,374658,-8388608,-8388608,-8388608
10:45:18.674997,-8388608,-8388608,-8388608,-8388608,376519,-8388608,-8388608,-8388608
10:45:18.674997,-8388608,-8388608,-8388608,-8388608,378824,-8388608,-8388608,-8388608
10:45:18.674997,-8388608,-8388608,-8388608,-8388608,379231,-8388608,-8388608,-8388608
10:45:18.692156,-8388608,-8388608,-8388608,-8388608,373955,-8388608,-8388608,-8388608
10:45:18.695736,-8388608,-8388608,-8388608,-8388608,368819,-8388608,-8388608,-8388608
10:45:18.700988,-8388608,-8388608,-8388608,-8388608,370478,-8388608,-8388608,-8388608
10:45:18.700988,-8388608,-8388608,-8388608,-8388608,375960,-8388608,-8388608,-8388608
10:45:18.708165,-8388608,-8388608,-8388608,-8388608,372965,-8388608,-8388608,-8388608
10:45:18.711294,-8388608,-8388608,-8388608,-8388608,372076,-8388608,-8388608,-8388608
10:45:18.713946,-8388608,-8388608,-8388608,-8388608,373528,-8388608,-8388608,-8388608
10:45:18.713946,-8388608,-8388608,-8388608,-8388608,371663,-8388608,-8388608,-8388608
10:45:18.723643,-8388608,-8388608,-8388608,-8388608,368535,-8388608,-8388608,-8388608
10:45:18.728684,-8388608,-8388608,-8388608,-8388608,367557,-8388608,-8388608,-8388608
10:45:18.733667,-8388608,-8388608,-8388608,-8388608,370606,-8388608,-8388608,-8388608
10:45:18.737713,-8388608,-8388608,-8388608,-8388608,370468,-8388608,-8388608,-8388608
10:45:18.739669,-8388608,-8388608,-8388608,-8388608,373193,-8388608,-8388608,-8388608
10:45:18.741066,-8388608,-8388608,-8388608,-8388608,372528,-8388608,-8388608,-8388608
10:45:18.741066,-8388608,-8388608,-8388608,-8388608,375050,-8388608,-8388608,-8388608
10:45:18.741066,-8388608,-8388608,-8388608,-8388608,374761,-8388608,-8388608,-8388608
10:45:18.758310,-8388608,-8388608,-8388608,-8388608,372480,-8388608,-8388608,-8388608
10:45:18.758310,-8388608,-8388608,-8388608,-8388608,366035,-8388608,-8388608,-8388608
10:45:18.758310,-8388608,-8388608,-8388608,-8388608,372414,-8388608,-8388608,-8388608
10:45:18.758310,-8388608,-8388608,-8388608,-8388608,385069,-8388608,-8388608,-8388608
10:45:18.758310,-8388608,-8388608,-8388608,-8388608,381843,-8388608,-8388608,-8388608
10:45:18.774986,-8388608,-8388608,-8388608,-8388608,378308,-8388608,-8388608,-8388608
10:45:18.774986,-8388608,-8388608,-8388608,-8388608,379448,-8388608,-8388608,-8388608
10:45:18.774986,-8388608,-8388608,-8388608,-8388608,380773,-8388608,-8388608,-8388608
10:45:18.790153,-8388608,-8388608,-8388608,-8388608,381690,-8388608,-8388608,-8388608
10:45:18.791872,-8388608,-8388608,-8388608,-8388608,385159,-8388608,-8388608,-8388608
10:45:18.791872,-8388608,-8388608,-8388608,-8388608,382221,-8388608,-8388608,-8388608
10:45:18.791872,-8388608,-8388608,-8388608,-8388608,380208,-8388608,-8388608,-8388608
10:45:18.801505,-8388608,-8388608,-8388608,-8388608,382327,-8388608,-8388608,-8388608
10:45:18.807873,-8388608,-8388608,-8388608,-8388608,382569,-8388608,-8388608,-8388608
10:45:18.811868,-8388608,-8388608,-8388608,-8388608,378664,-8388608,-8388608,-8388608
10:45:18.813933,-8388608,-8388608,-8388608,-8388608,381189,-8388608,-8388608,-8388608
10:45:18.813933,-8388608,-8388608,-8388608,-8388608,382951,-8388608,-8388608,-8388608
10:45:18.823529,-8388608,-8388608,-8388608,-8388608,384644,-8388608,-8388608,-8388608
10:45:18.824726,-8388608,-8388608,-8388608,-8388608,382805,-8388608,-8388608,-8388608
10:45:18.824726,-8388608,-8388608,-8388608,-8388608,378152,-8388608,-8388608,-8388608
10:45:18.824726,-8388608,-8388608,-8388608,-8388608,378486,-8388608,-8388608,-8388608
10:45:18.841198,-8388608,-8388608,-8388608,-8388608,385341,-8388608,-8388608,-8388608
10:45:18.841675,-8388608,-8388608,-8388608,-8388608,388026,-8388608,-8388608,-8388608
10:45:18.841675,-8388608,-8388608,-8388608,-8388608,379729,-8388608,-8388608,-8388608
10:45:18.841675,-8388608,-8388608,-8388608,-8388608,377047,-8388608,-8388608,-8388608
10:45:18.841675,-8388608,-8388608,-8388608,-8388608,376905,-8388608,-8388608,-8388608
10:45:18.858185,-8388608,-8388608,-8388608,-8388608,376504,-8388608,-8388608,-8388608
10:45:18.858185,-8388608,-8388608,-8388608,-8388608,385088,-8388608,-8388608,-8388608
10:45:18.858185,-8388608,-8388608,-8388608,-8388608,388401,-8388608,-8388608,-8388608
10:45:18.858185,-8388608,-8388608,-8388608,-8388608,387094,-8388608,-8388608,-8388608
10:45:18.875006,-8388608,-8388608,-8388608,-8388608,380720,-8388608,-8388608,-8388608
10:45:18.875006,-8388608,-8388608,-8388608,-8388608,378523,-8388608,-8388608,-8388608
10:45:18.875006,-8388608,-8388608,-8388608,-8388608,378951,-8388608,-8388608,-8388608
10:45:18.875006,-8388608,-8388608,-8388608,-8388608,382801,-8388608,-8388608,-8388608
10:45:18.891953,-8388608,-8388608,-8388608,-8388608,382045,-8388608,-8388608,-8388608
10:45:18.893099,-8388608,-8388608,-8388608,-8388608,384306,-8388608,-8388608,-8388608
10:45:18.893099,-8388608,-8388608,-8388608,-8388608,382821,-8388608,-8388608,-8388608
10:45:18.901702,-8388608,-8388608,-8388608,-8388608,380198,-8388608,-8388608,-8388608
10:45:18.908630,-8388608,-8388608,-8388608,-8388608,381858,-8388608,-8388608,-8388608
10:45:18.912626,-8388608,-8388608,-8388608,-8388608,377961,-8388608,-8388608,-8388608
10:45:18.913755,-8388608,-8388608,-8388608,-8388608,372938,-8388608,-8388608,-8388608
10:45:18.913755,-8388608,-8388608,-8388608,-8388608,378068,-8388608,-8388608,-8388608
10:45:18.924315,-8388608,-8388608,-8388608,-8388608,382610,-8388608,-8388608,-8388608
10:45:18.928087,-8388608,-8388608,-8388608,-8388608,379819,-8388608,-8388608,-8388608
10:45:18.930020,-8388608,-8388608,-8388608,-8388608,379498,-8388608,-8388608,-8388608
10:45:18.930020,-8388608,-8388608,-8388608,-8388608,380942,-8388608,-8388608,-8388608
10:45:18.940058,-8388608,-8388608,-8388608,-8388608,383355,-8388608,-8388608,-8388608
10:45:18.944333,-8388608,-8388608,-8388608,-8388608,382653,-8388608,-8388608,-8388608
10:45:18.948625,-8388608,-8388608,-8388608,-8388608,379834,-8388608,-8388608,-8388608
10:45:18.952628,-8388608,-8388608,-8388608,-8388608,383224,-8388608,-8388608,-8388608
10:45:18.956362,-8388608,-8388608,-8388608,-8388608,382959,-8388608,-8388608,-8388608
10:45:18.957715,-8388608,-8388608,-8388608,-8388608,382124,-8388608,-8388608,-8388608
10:45:18.957715,-8388608,-8388608,-8388608,-8388608,381097,-8388608,-8388608,-8388608
10:45:18.957715,-8388608,-8388608,-8388608,-8388608,380256,-8388608,-8388608,-8388608
10:45:18.957715,-8388608,-8388608,-8388608,-8388608,376104,-8388608,-8388608,-8388608
10:45:18.974227,-8388608,-8388608,-8388608,-8388608,381227,-8388608,-8388608,-8388608
10:45:18.974227,-8388608,-8388608,-8388608,-8388608,381628,-8388608,-8388608,-8388608
10:45:18.974227,-8388608,-8388608,-8388608,-8388608,376876,-8388608,-8388608,-8388608
10:45:18.974227,-8388608,-8388608,-8388608,-8388608,377616,-8388608,-8388608,-8388608
10:45:18.990767,-8388608,-8388608,-8388608,-8388608,377133,-8388608,-8388608,-8388608
10:45:18.990767,-8388608,-8388608,-8388608,-8388608,379118,-8388608,-8388608,-8388608
10:45:18.990767,-8388608,-8388608,-8388608,-8388608,380936,-8388608,-8388608,-8388608
10:45:19.001836,-8388608,-8388608,-8388608,-8388608,381525,-8388608,-8388608,-8388608
10:45:19.007522,-8388608,-8388608,-8388608,-8388608,380050,-8388608,-8388608,-8388608
10:45:19.007694,-8388608,-8388608,-8388608,-8388608,378953,-8388608,-8388608,-8388608
10:45:19.007694,-8388608,-8388608,-8388608,-8388608,378193,-8388608,-8388608,-8388608
10:45:19.007694,-8388608,-8388608,-8388608,-8388608,384604,-8388608,-8388608,-8388608
10:45:19.023172,-8388608,-8388608,-8388608,-8388608,387156,-8388608,-8388608,-8388608
10:45:19.028255,-8388608,-8388608,-8388608,-8388608,384223,-8388608,-8388608,-8388608
10:45:19.030571,-8388608,-8388608,-8388608,-8388608,379424,-8388608,-8388608,-8388608
10:45:19.030571,-8388608,-8388608,-8388608,-8388608,378611,-8388608,-8388608,-8388608
10:45:19.030571,-8388608,-8388608,-8388608,-8388608,377004,-8388608,-8388608,-8388608
10:45:19.041141,-8388608,-8388608,-8388608,-8388608,377894,-8388608,-8388608,-8388608
10:45:19.041141,-8388608,-8388608,-8388608,-8388608,377413,-8388608,-8388608,-8388608
10:45:19.041141,-8388608,-8388608,-8388608,-8388608,378836,-8388608,-8388608,-8388608
10:45:19.056496,-8388608,-8388608,-8388608,-8388608,379797,-8388608,-8388608,-8388608
10:45:19.058227,-8388608,-8388608,-8388608,-8388608,381235,-8388608,-8388608,-8388608
10:45:19.058227,-8388608,-8388608,-8388608,-8388608,380835,-8388608,-8388608,-8388608
10:45:19.058227,-8388608,-8388608,-8388608,-8388608,375729,-8388608,-8388608,-8388608
10:45:19.058227,-8388608,-8388608,-8388608,-8388608,375036,-8388608,-8388608,-8388608
10:45:19.074777,-8388608,-8388608,-8388608,-8388608,377311,-8388608,-8388608,-8388608
10:45:19.074777,-8388608,-8388608,-8388608,-8388608,380510,-8388608,-8388608,-8388608
10:45:19.074777,-8388608,-8388608,-8388608,-8388608,382499,-8388608,-8388608,-8388608
10:45:19.074777,-8388608,-8388608,-8388608,-8388608,381896,-8388608,-8388608,-8388608
10:45:19.091601,-8388608,-8388608,-8388608,-8388608,381484,-8388608,-8388608,-8388608
10:45:19.091601,-8388608,-8388608,-8388608,-8388608,383014,-8388608,-8388608,-8388608
10:45:19.091601,-8388608,-8388608,-8388608,-8388608,382741,-8388608,-8388608,-8388608
10:45:19.102158,-8388608,-8388608,-8388608,-8388608,379252,-8388608,-8388608,-8388608
10:45:19.107397,-8388608,-8388608,-8388608,-8388608,375469,-8388608,-8388608,-8388608
10:45:19.108279,-8388608,-8388608,-8388608,-8388608,377096,-8388608,-8388608,-8388608
10:45:19.108279,-8388608,-8388608,-8388608,-8388608,379237,-8388608,-8388608,-8388608
10:45:19.108279,-8388608,-8388608,-8388608,-8388608,378178,-8388608,-8388608,-8388608
10:45:19.124307,-8388608,-8388608,-8388608,-8388608,380129,-8388608,-8388608,-8388608
10:45:19.127379,-8388608,-8388608,-8388608,-8388608,382206,-8388608,-8388608,-8388608
10:45:19.131123,-8388608,-8388608,-8388608,-8388608,383721,-8388608,-8388608,-8388608
10:45:19.131123,-8388608,-8388608,-8388608,-8388608,378705,-8388608,-8388608,-8388608
10:45:19.140722,-8388608,-8388608,-8388608,-8388608,378267,-8388608,-8388608,-8388608
10:45:19.140956,-8388608,-8388608,-8388608,-8388608,373926,-8388608,-8388608,-8388608
10:45:19.146541,-8388608,-8388608,-8388608,-8388608,376866,-8388608,-8388608,-8388608
10:45:19.146541,-8388608,-8388608,-8388608,-8388608,381089,-8388608,-8388608,-8388608
10:45:19.146541,-8388608,-8388608,-8388608,-8388608,378544,-8388608,-8388608,-8388608
10:45:19.159518,-8388608,-8388608,-8388608,-8388608,374705,-8388608,-8388608,-8388608
10:45:19.166011,-8388608,-8388608,-8388608,-8388608,376057,-8388608,-8388608,-8388608
10:45:19.169290,-8388608,-8388608,-8388608,-8388608,377651,-8388608,-8388608,-8388608
10:45:19.172464,-8388608,-8388608,-8388608,-8388608,376744,-8388608,-8388608,-8388608
10:45:19.174038,-8388608,-8388608,-8388608,-8388608,377729,-8388608,-8388608,-8388608
10:45:19.174038,-8388608,-8388608,-8388608,-8388608,380971,-8388608,-8388608,-8388608
10:45:19.174038,-8388608,-8388608,-8388608,-8388608,378301,-8388608,-8388608,-8388608
10:45:19.174038,-8388608,-8388608,-8388608,-8388608,376631,-8388608,-8388608,-8388608
10:45:19.191297,-8388608,-8388608,-8388608,-8388608,377659,-8388608,-8388608,-8388608
10:45:19.191297,-8388608,-8388608,-8388608,-8388608,374250,-8388608,-8388608,-8388608
10:45:19.191297,-8388608,-8388608,-8388608,-8388608,376409,-8388608,-8388608,-8388608
10:45:19.202311,-8388608,-8388608,-8388608,-8388608,378427,-8388608,-8388608,-8388608
10:45:19.207385,-8388608,-8388608,-8388608,-8388608,380858,-8388608,-8388608,-8388608
10:45:19.208300,-8388608,-8388608,-8388608,-8388608,376818,-8388608,-8388608,-8388608
10:45:19.208300,-8388608,-8388608,-8388608,-8388608,374336,-8388608,-8388608,-8388608
10:45:19.208300,-8388608,-8388608,-8388608,-8388608,376420,-8388608,-8388608,-8388608
10:45:19.223751,-8388608,-8388608,-8388608,-8388608,376560,-8388608,-8388608,-8388608
10:45:19.227749,-8388608,-8388608,-8388608,-8388608,379104,-8388608,-8388608,-8388608
10:45:19.230538,-8388608,-8388608,-8388608,-8388608,379628,-8388608,-8388608,-8388608
10:45:19.230538,-8388608,-8388608,-8388608,-8388608,379541,-8388608,-8388608,-8388608
10:45:19.240913,-8388608,-8388608,-8388608,-8388608,376569,-8388608,-8388608,-8388608
10:45:19.240913,-8388608,-8388608,-8388608,-8388608,376296,-8388608,-8388608,-8388608
10:45:19.240913,-8388608,-8388608,-8388608,-8388608,379553,-8388608,-8388608,-8388608
10:45:19.240913,-8388608,-8388608,-8388608,-8388608,382286,-8388608,-8388608,-8388608
10:45:19.256441,-8388608,-8388608,-8388608,-8388608,379395,-8388608,-8388608,-8388608
10:45:19.257769,-8388608,-8388608,-8388608,-8388608,378307,-8388608,-8388608,-8388608
10:45:19.257769,-8388608,-8388608,-8388608,-8388608,382367,-8388608,-8388608,-8388608
10:45:19.257769,-8388608,-8388608,-8388608,-8388608,380689,-8388608,-8388608,-8388608
10:45:19.257769,-8388608,-8388608,-8388608,-8388608,380341,-8388608,-8388608,-8388608
10:45:19.274584,-8388608,-8388608,-8388608,-8388608,383494,-8388608,-8388608,-8388608
10:45:19.274584,-8388608,-8388608,-8388608,-8388608,379094,-8388608,-8388608,-8388608
10:45:19.274584,-8388608,-8388608,-8388608,-8388608,375920,-8388608,-8388608,-8388608
10:45:19.274584,-8388608,-8388608,-8388608,-8388608,380282,-8388608,-8388608,-8388608
10:45:19.291006,-8388608,-8388608,-8388608,-8388608,381017,-8388608,-8388608,-8388608
10:45:19.291006,-8388608,-8388608,-8388608,-8388608,376127,-8388608,-8388608,-8388608
10:45:19.291006,-8388608,-8388608,-8388608,-8388608,365416,-8388608,-8388608,-8388608
10:45:19.302592,-8388608,-8388608,-8388608,-8388608,353004,-8388608,-8388608,-8388608
10:45:19.306608,-8388608,-8388608,-8388608,-8388608,348758,-8388608,-8388608,-8388608
10:45:19.307511,-8388608,-8388608,-8388608,-8388608,344056,-8388608,-8388608,-8388608
10:45:19.307511,-8388608,-8388608,-8388608,-8388608,350558,-8388608,-8388608,-8388608
10:45:19.307511,-8388608,-8388608,-8388608,-8388608,368240,-8388608,-8388608,-8388608
10:45:19.324014,-8388608,-8388608,-8388608,-8388608,384249,-8388608,-8388608,-8388608
10:45:19.324214,-8388608,-8388608,-8388608,-8388608,388040,-8388608,-8388608,-8388608
10:45:19.324214,-8388608,-8388608,-8388608,-8388608,385975,-8388608,-8388608,-8388608
10:45:19.324214,-8388608,-8388608,-8388608,-8388608,384088,-8388608,-8388608,-8388608
10:45:19.339764,-8388608,-8388608,-8388608,-8388608,383704,-8388608,-8388608,-8388608
10:45:19.342772,-8388608,-8388608,-8388608,-8388608,381784,-8388608,-8388608,-8388608
10:45:19.346260,-8388608,-8388608,-8388608,-8388608,378973,-8388608,-8388608,-8388608
10:45:19.346260,-8388608,-8388608,-8388608,-8388608,377454,-8388608,-8388608,-8388608
10:45:19.346260,-8388608,-8388608,-8388608,-8388608,378505,-8388608,-8388608,-8388608
10:45:19.357638,-8388608,-8388608,-8388608,-8388608,382649,-8388608,-8388608,-8388608
10:45:19.363127,-8388608,-8388608,-8388608,-8388608,382933,-8388608,-8388608,-8388608
10:45:19.364046,-8388608,-8388608,-8388608,-8388608,377136,-8388608,-8388608,-8388608
10:45:19.364046,-8388608,-8388608,-8388608,-8388608,377869,-8388608,-8388608,-8388608
10:45:19.374717,-8388608,-8388608,-8388608,-8388608,377742,-8388608,-8388608,-8388608
10:45:19.380197,-8388608,-8388608,-8388608,-8388608,374603,-8388608,-8388608,-8388608
10:45:19.384233,-8388608,-8388608,-8388608,-8388608,372608,-8388608,-8388608,-8388608
10:45:19.387637,-8388608,-8388608,-8388608,-8388608,375749,-8388608,-8388608,-8388608
10:45:19.391080,-8388608,-8388608,-8388608,-8388608,377297,-8388608,-8388608,-8388608
10:45:19.391080,-8388608,-8388608,-8388608,-8388608,376640,-8388608,-8388608,-8388608
10:45:19.391080,-8388608,-8388608,-8388608,-8388608,376490,-8388608,-8388608,-8388608
10:45:19.402709,-8388608,-8388608,-8388608,-8388608,378939,-8388608,-8388608,-8388608
10:45:19.407342,-8388608,-8388608,-8388608,-8388608,378547,-8388608,-8388608,-8388608
10:45:19.407898,-8388608,-8388608,-8388608,-8388608,376683,-8388608,-8388608,-8388608
10:45:19.407898,-8388608,-8388608,-8388608,-8388608,371101,-8388608,-8388608,-8388608
10:45:19.407898,-8388608,-8388608,-8388608,-8388608,372634,-8388608,-8388608,-8388608
10:45:19.423918,-8388608,-8388608,-8388608,-8388608,372093,-8388608,-8388608,-8388608
10:45:19.424447,-8388608,-8388608,-8388608,-8388608,374233,-8388608,-8388608,-8388608
10:45:19.424447,-8388608,-8388608,-8388608,-8388608,374526,-8388608,-8388608,-8388608
10:45:19.424447,-8388608,-8388608,-8388608,-8388608,375829,-8388608,-8388608,-8388608
10:45:19.439669,-8388608,-8388608,-8388608,-8388608,377389,-8388608,-8388608,-8388608
10:45:19.442721,-8388608,-8388608,-8388608,-8388608,375638,-8388608,-8388608,-8388608
10:45:19.446842,-8388608,-8388608,-8388608,-8388608,372026,-8388608,-8388608,-8388608
10:45:19.447207,-8388608,-8388608,-8388608,-8388608,373646,-8388608,-8388608,-8388608
10:45:19.447207,-8388608,-8388608,-8388608,-8388608,377405,-8388608,-8388608,-8388608
10:45:19.457855,-8388608,-8388608,-8388608,-8388608,373376,-8388608,-8388608,-8388608
10:45:19.457855,-8388608,-8388608,-8388608,-8388608,370087,-8388608,-8388608,-8388608
10:45:19.457855,-8388608,-8388608,-8388608,-8388608,375330,-8388608,-8388608,-8388608
10:45:19.457855,-8388608,-8388608,-8388608,-8388608,375425,-8388608,-8388608,-8388608
10:45:19.474725,-8388608,-8388608,-8388608,-8388608,376021,-8388608,-8388608,-8388608
10:45:19.474725,-8388608,-8388608,-8388608,-8388608,373170,-8388608,-8388608,-8388608
10:45:19.474725,-8388608,-8388608,-8388608,-8388608,369555,-8388608,-8388608,-8388608
10:45:19.474725,-8388608,-8388608,-8388608,-8388608,367476,-8388608,-8388608,-8388608
10:45:19.492143,-8388608,-8388608,-8388608,-8388608,372278,-8388608,-8388608,-8388608
10:45:19.492143,-8388608,-8388608,-8388608,-8388608,370429,-8388608,-8388608,-8388608
10:45:19.492143,-8388608,-8388608,-8388608,-8388608,371678,-8388608,-8388608,-8388608
10:45:19.502654,-8388608,-8388608,-8388608,-8388608,370075,-8388608,-8388608,-8388608
10:45:19.507163,-8388608,-8388608,-8388608,-8388608,366020,-8388608,-8388608,-8388608
10:45:19.507811,-8388608,-8388608,-8388608,-8388608,366869,-8388608,-8388608,-8388608
10:45:19.507811,-8388608,-8388608,-8388608,-8388608,369138,-8388608,-8388608,-8388608
10:45:19.507811,-8388608,-8388608,-8388608,-8388608,368359,-8388608,-8388608,-8388608
10:45:19.522785,-8388608,-8388608,-8388608,-8388608,365723,-8388608,-8388608,-8388608
10:45:19.524341,-8388608,-8388608,-8388608,-8388608,365870,-8388608,-8388608,-8388608
10:45:19.524341,-8388608,-8388608,-8388608,-8388608,367974,-8388608,-8388608,-8388608
10:45:19.524341,-8388608,-8388608,-8388608,-8388608,374422,-8388608,-8388608,-8388608
10:45:19.524341,-8388608,-8388608,-8388608,-8388608,369305,-8388608,-8388608,-8388608
10:45:19.541355,-8388608,-8388608,-8388608,-8388608,367642,-8388608,-8388608,-8388608
10:45:19.541355,-8388608,-8388608,-8388608,-8388608,364929,-8388608,-8388608,-8388608
10:45:19.541355,-8388608,-8388608,-8388608,-8388608,368192,-8388608,-8388608,-8388608
10:45:19.541355,-8388608,-8388608,-8388608,-8388608,369848,-8388608,-8388608,-8388608
10:45:19.558129,-8388608,-8388608,-8388608,-8388608,365909,-8388608,-8388608,-8388608
10:45:19.563188,-8388608,-8388608,-8388608,-8388608,366423,-8388608,-8388608,-8388608
10:45:19.563662,-8388608,-8388608,-8388608,-8388608,365706,-8388608,-8388608,-8388608
10:45:19.572680,-8388608,-8388608,-8388608,-8388608,366531,-8388608,-8388608,-8388608
10:45:19.577016,-8388608,-8388608,-8388608,-8388608,366855,-8388608,-8388608,-8388608
10:45:19.579460,-8388608,-8388608,-8388608,-8388608,368313,-8388608,-8388608,-8388608
10:45:19.579460,-8388608,-8388608,-8388608,-8388608,372021,-8388608,-8388608,-8388608
10:45:19.579460,-8388608,-8388608,-8388608,-8388608,369018,-8388608,-8388608,-8388608
10:45:19.591520,-8388608,-8388608,-8388608,-8388608,367799,-8388608,-8388608,-8388608
10:45:19.595025,-8388608,-8388608,-8388608,-8388608,364291,-8388608,-8388608,-8388608
10:45:19.599900,-8388608,-8388608,-8388608,-8388608,366001,-8388608,-8388608,-8388608
10:45:19.603899,-8388608,-8388608,-8388608,-8388608,376566,-8388608,-8388608,-8388608
10:45:19.607188,-8388608,-8388608,-8388608,-8388608,376939,-8388608,-8388608,-8388608
10:45:19.607188,-8388608,-8388608,-8388608,-8388608,375463,-8388608,-8388608,-8388608
10:45:19.607188,-8388608,-8388608,-8388608,-8388608,374148,-8388608,-8388608,-8388608
10:45:19.607188,-8388608,-8388608,-8388608,-8388608,375043,-8388608,-8388608,-8388608
10:45:19.622796,-8388608,-8388608,-8388608,-8388608,377668,-8388608,-8388608,-8388608
10:45:19.624096,-8388608,-8388608,-8388608,-8388608,377791,-8388608,-8388608,-8388608
10:45:19.624096,-8388608,-8388608,-8388608,-8388608,373347,-8388608,-8388608,-8388608
10:45:19.624096,-8388608,-8388608,-8388608,-8388608,370914,-8388608,-8388608,-8388608
10:45:19.624096,-8388608,-8388608,-8388608,-8388608,373950,-8388608,-8388608,-8388608
10:45:19.639983,-8388608,-8388608,-8388608,-8388608,375443,-8388608,-8388608,-8388608
10:45:19.639983,-8388608,-8388608,-8388608,-8388608,376947,-8388608,-8388608,-8388608
10:45:19.639983,-8388608,-8388608,-8388608,-8388608,377741,-8388608,-8388608,-8388608
10:45:19.655002,-8388608,-8388608,-8388608,-8388608,378826,-8388608,-8388608,-8388608
10:45:19.657697,-8388608,-8388608,-8388608,-8388608,378958,-8388608,-8388608,-8388608
10:45:19.660215,-8388608,-8388608,-8388608,-8388608,375069,-8388608,-8388608,-8388608
10:45:19.660215,-8388608,-8388608,-8388608,-8388608,366915,-8388608,-8388608,-8388608
10:45:19.660215,-8388608,-8388608,-8388608,-8388608,368649,-8388608,-8388608,-8388608
10:45:19.672979,-8388608,-8388608,-8388608,-8388608,378408,-8388608,-8388608,-8388608
10:45:19.672979,-8388608,-8388608,-8388608,-8388608,381126,-8388608,-8388608,-8388608
10:45:19.672979,-8388608,-8388608,-8388608,-8388608,378348,-8388608,-8388608,-8388608
10:45:19.672979,-8388608,-8388608,-8388608,-8388608,379705,-8388608,-8388608,-8388608
10:45:19.689602,-8388608,-8388608,-8388608,-8388608,381084,-8388608,-8388608,-8388608
10:45:19.689602,-8388608,-8388608,-8388608,-8388608,378086,-8388608,-8388608,-8388608
10:45:19.689602,-8388608,-8388608,-8388608,-8388608,375933,-8388608,-8388608,-8388608
10:45:19.689602,-8388608,-8388608,-8388608,-8388608,376009,-8388608,-8388608,-8388608
10:45:19.706180,-8388608,-8388608,-8388608,-8388608,376631,-8388608,-8388608,-8388608
10:45:19.706180,-8388608,-8388608,-8388608,-8388608,376073,-8388608,-8388608,-8388608
10:45:19.706180,-8388608,-8388608,-8388608,-8388608,372822,-8388608,-8388608,-8388608
10:45:19.706180,-8388608,-8388608,-8388608,-8388608,371803,-8388608,-8388608,-8388608
10:45:19.722258,-8388608,-8388608,-8388608,-8388608,374662,-8388608,-8388608,-8388608
10:45:19.722921,-8388608,-8388608,-8388608,-8388608,375509,-8388608,-8388608,-8388608
10:45:19.722921,-8388608,-8388608,-8388608,-8388608,376990,-8388608,-8388608,-8388608
10:45:19.722921,-8388608,-8388608,-8388608,-8388608,374514,-8388608,-8388608,-8388608
10:45:19.738991,-8388608,-8388608,-8388608,-8388608,374798,-8388608,-8388608,-8388608
10:45:19.739756,-8388608,-8388608,-8388608,-8388608,376016,-8388608,-8388608,-8388608
10:45:19.739756,-8388608,-8388608,-8388608,-8388608,377014,-8388608,-8388608,-8388608
10:45:19.739756,-8388608,-8388608,-8388608,-8388608,376131,-8388608,-8388608,-8388608
10:45:19.739756,-8388608,-8388608,-8388608,-8388608,376174,-8388608,-8388608,-8388608
10:45:19.756550,-8388608,-8388608,-8388608,-8388608,377536,-8388608,-8388608,-8388608
10:45:19.756550,-8388608,-8388608,-8388608,-8388608,374016,-8388608,-8388608,-8388608
10:45:19.756550,-8388608,-8388608,-8388608,-8388608,374892,-8388608,-8388608,-8388608
10:45:19.756550,-8388608,-8388608,-8388608,-8388608,377419,-8388608,-8388608,-8388608
10:45:19.774286,-8388608,-8388608,-8388608,-8388608,373208,-8388608,-8388608,-8388608
10:45:19.776648,-8388608,-8388608,-8388608,-8388608,373607,-8388608,-8388608,-8388608
10:45:19.776648,-8388608,-8388608,-8388608,-8388608,374513,-8388608,-8388608,-8388608
10:45:19.776648,-8388608,-8388608,-8388608,-8388608,375821,-8388608,-8388608,-8388608
10:45:19.789684,-8388608,-8388608,-8388608,-8388608,381158,-8388608,-8388608,-8388608
10:45:19.794584,-8388608,-8388608,-8388608,-8388608,376034,-8388608,-8388608,-8388608
10:45:19.794584,-8388608,-8388608,-8388608,-8388608,372245,-8388608,-8388608,-8388608
10:45:19.802603,-8388608,-8388608,-8388608,-8388608,372528,-8388608,-8388608,-8388608
10:45:19.806668,-8388608,-8388608,-8388608,-8388608,375404,-8388608,-8388608,-8388608
10:45:19.810666,-8388608,-8388608,-8388608,-8388608,371024,-8388608,-8388608,-8388608
10:45:19.814739,-8388608,-8388608,-8388608,-8388608,369051,-8388608,-8388608,-8388608
10:45:19.818669,-8388608,-8388608,-8388608,-8388608,377173,-8388608,-8388608,-8388608
10:45:19.822668,-8388608,-8388608,-8388608,-8388608,379164,-8388608,-8388608,-8388608
10:45:19.824518,-8388608,-8388608,-8388608,-8388608,374189,-8388608,-8388608,-8388608
10:45:19.824518,-8388608,-8388608,-8388608,-8388608,377257,-8388608,-8388608,-8388608
10:45:19.824518,-8388608,-8388608,-8388608,-8388608,377929,-8388608,-8388608,-8388608
10:45:19.824518,-8388608,-8388608,-8388608,-8388608,378789,-8388608,-8388608,-8388608
10:45:19.841065,-8388608,-8388608,-8388608,-8388608,376936,-8388608,-8388608,-8388608
10:45:19.841065,-8388608,-8388608,-8388608,-8388608,376257,-8388608,-8388608,-8388608
10:45:19.841065,-8388608,-8388608,-8388608,-8388608,372419,-8388608,-8388608,-8388608
10:45:19.841065,-8388608,-8388608,-8388608,-8388608,371094,-8388608,-8388608,-8388608
10:45:19.856836,-8388608,-8388608,-8388608,-8388608,375996,-8388608,-8388608,-8388608
10:45:19.856836,-8388608,-8388608,-8388608,-8388608,376511,-8388608,-8388608,-8388608
10:45:19.856836,-8388608,-8388608,-8388608,-8388608,374991,-8388608,-8388608,-8388608
10:45:19.856836,-8388608,-8388608,-8388608,-8388608,373956,-8388608,-8388608,-8388608
10:45:19.874518,-8388608,-8388608,-8388608,-8388608,370495,-8388608,-8388608,-8388608
10:45:19.878594,-8388608,-8388608,-8388608,-8388608,373283,-8388608,-8388608,-8388608
10:45:19.878971,-8388608,-8388608,-8388608,-8388608,377626,-8388608,-8388608,-8388608
10:45:19.878971,-8388608,-8388608,-8388608,-8388608,374554,-8388608,-8388608,-8388608
10:45:19.890417,-8388608,-8388608,-8388608,-8388608,372998,-8388608,-8388608,-8388608
10:45:19.890417,-8388608,-8388608,-8388608,-8388608,373409,-8388608,-8388608,-8388608
10:45:19.890417,-8388608,-8388608,-8388608,-8388608,375079,-8388608,-8388608,-8388608
10:45:19.890417,-8388608,-8388608,-8388608,-8388608,374142,-8388608,-8388608,-8388608
10:45:19.905853,-8388608,-8388608,-8388608,-8388608,378119,-8388608,-8388608,-8388608
10:45:19.907261,-8388608,-8388608,-8388608,-8388608,374398,-8388608,-8388608,-8388608
10:45:19.907261,-8388608,-8388608,-8388608,-8388608,372270,-8388608,-8388608,-8388608
10:45:19.907261,-8388608,-8388608,-8388608,-8388608,374634,-8388608,-8388608,-8388608
10:45:19.922418,-8388608,-8388608,-8388608,-8388608,376632,-8388608,-8388608,-8388608
10:45:19.923902,-8388608,-8388608,-8388608,-8388608,374528,-8388608,-8388608,-8388608
10:45:19.923902,-8388608,-8388608,-8388608,-8388608,372999,-8388608,-8388608,-8388608
10:45:19.923902,-8388608,-8388608,-8388608,-8388608,374470,-8388608,-8388608,-8388608
10:45:19.923902,-8388608,-8388608,-8388608,-8388608,379811,-8388608,-8388608,-8388608
10:45:19.940715,-8388608,-8388608,-8388608,-8388608,377832,-8388608,-8388608,-8388608
10:45:19.940715,-8388608,-8388608,-8388608,-8388608,375402,-8388608,-8388608,-8388608
10:45:19.940715,-8388608,-8388608,-8388608,-8388608,374491,-8388608,-8388608,-8388608
10:45:19.940715,-8388608,-8388608,-8388608,-8388608,377137,-8388608,-8388608,-8388608
10:45:19.957298,-8388608,-8388608,-8388608,-8388608,376649,-8388608,-8388608,-8388608
10:45:19.957298,-8388608,-8388608,-8388608,-8388608,374314,-8388608,-8388608,-8388608
10:45:19.957298,-8388608,-8388608,-8388608,-8388608,373137,-8388608,-8388608,-8388608
10:45:19.957298,-8388608,-8388608,-8388608,-8388608,371347,-8388608,-8388608,-8388608
10:45:19.974368,-8388608,-8388608,-8388608,-8388608,375791,-8388608,-8388608,-8388608
10:45:19.978363,-8388608,-8388608,-8388608,-8388608,376172,-8388608,-8388608,-8388608
10:45:19.979447,-8388608,-8388608,-8388608,-8388608,376119,-8388608,-8388608,-8388608
10:45:19.979447,-8388608,-8388608,-8388608,-8388608,374636,-8388608,-8388608,-8388608
10:45:19.989981,-8388608,-8388608,-8388608,-8388608,371486,-8388608,-8388608,-8388608
10:45:19.989981,-8388608,-8388608,-8388608,-8388608,371996,-8388608,-8388608,-8388608
10:45:19.989981,-8388608,-8388608,-8388608,-8388608,371889,-8388608,-8388608,-8388608
10:45:20.003094,-8388608,-8388608,-8388608,-8388608,375923,-8388608,-8388608,-8388608
10:45:20.006840,-8388608,-8388608,-8388608,-8388608,378229,-8388608,-8388608,-8388608
10:45:20.010507,-8388608,-8388608,-8388608,-8388608,376719,-8388608,-8388608,-8388608
10:45:20.012479,-8388608,-8388608,-8388608,-8388608,378819,-8388608,-8388608,-8388608
10:45:20.012479,-8388608,-8388608,-8388608,-8388608,376249,-8388608,-8388608,-8388608
10:45:20.022380,-8388608,-8388608,-8388608,-8388608,372633,-8388608,-8388608,-8388608
10:45:20.025428,-8388608,-8388608,-8388608,-8388608,374781,-8388608,-8388608,-8388608
10:45:20.030193,-8388608,-8388608,-8388608,-8388608,374148,-8388608,-8388608,-8388608
10:45:20.034203,-8388608,-8388608,-8388608,-8388608,373554,-8388608,-8388608,-8388608
10:45:20.038203,-8388608,-8388608,-8388608,-8388608,371490,-8388608,-8388608,-8388608
10:45:20.040052,-8388608,-8388608,-8388608,-8388608,375098,-8388608,-8388608,-8388608
10:45:20.040052,-8388608,-8388608,-8388608,-8388608,374694,-8388608,-8388608,-8388608
10:45:20.040052,-8388608,-8388608,-8388608,-8388608,374334,-8388608,-8388608,-8388608
10:45:20.040052,-8388608,-8388608,-8388608,-8388608,376040,-8388608,-8388608,-8388608
10:45:20.057206,-8388608,-8388608,-8388608,-8388608,370391,-8388608,-8388608,-8388608
10:45:20.057206,-8388608,-8388608,-8388608,-8388608,369789,-8388608,-8388608,-8388608
10:45:20.057206,-8388608,-8388608,-8388608,-8388608,373807,-8388608,-8388608,-8388608
10:45:20.057206,-8388608,-8388608,-8388608,-8388608,373743,-8388608,-8388608,-8388608
10:45:20.074191,-8388608,-8388608,-8388608,-8388608,372928,-8388608,-8388608,-8388608
10:45:20.074191,-8388608,-8388608,-8388608,-8388608,371376,-8388608,-8388608,-8388608
10:45:20.074191,-8388608,-8388608,-8388608,-8388608,369129,-8388608,-8388608,-8388608
10:45:20.074191,-8388608,-8388608,-8388608,-8388608,371347,-8388608,-8388608,-8388608
10:45:20.090067,-8388608,-8388608,-8388608,-8388608,373673,-8388608,-8388608,-8388608
10:45:20.094030,-8388608,-8388608,-8388608,-8388608,376998,-8388608,-8388608,-8388608
10:45:20.095479,-8388608,-8388608,-8388608,-8388608,373844,-8388608,-8388608,-8388608
10:45:20.103098,-8388608,-8388608,-8388608,-8388608,370658,-8388608,-8388608,-8388608
10:45:20.106596,-8388608,-8388608,-8388608,-8388608,370896,-8388608,-8388608,-8388608
10:45:20.106596,-8388608,-8388608,-8388608,-8388608,372208,-8388608,-8388608,-8388608
10:45:20.106596,-8388608,-8388608,-8388608,-8388608,375478,-8388608,-8388608,-8388608
10:45:20.106596,-8388608,-8388608,-8388608,-8388608,376657,-8388608,-8388608,-8388608
10:45:20.122047,-8388608,-8388608,-8388608,-8388608,377548,-8388608,-8388608,-8388608
10:45:20.122851,-8388608,-8388608,-8388608,-8388608,379603,-8388608,-8388608,-8388608
10:45:20.122851,-8388608,-8388608,-8388608,-8388608,375317,-8388608,-8388608,-8388608
10:45:20.122851,-8388608,-8388608,-8388608,-8388608,369207,-8388608,-8388608,-8388608
10:45:20.138837,-8388608,-8388608,-8388608,-8388608,374461,-8388608,-8388608,-8388608
10:45:20.140232,-8388608,-8388608,-8388608,-8388608,375498,-8388608,-8388608,-8388608
10:45:20.140232,-8388608,-8388608,-8388608,-8388608,371092,-8388608,-8388608,-8388608
10:45:20.140232,-8388608,-8388608,-8388608,-8388608,375379,-8388608,-8388608,-8388608
10:45:20.140232,-8388608,-8388608,-8388608,-8388608,372303,-8388608,-8388608,-8388608
10:45:20.157119,-8388608,-8388608,-8388608,-8388608,376070,-8388608,-8388608,-8388608
10:45:20.157119,-8388608,-8388608,-8388608,-8388608,378608,-8388608,-8388608,-8388608
10:45:20.157119,-8388608,-8388608,-8388608,-8388608,372334,-8388608,-8388608,-8388608
10:45:20.157119,-8388608,-8388608,-8388608,-8388608,372868,-8388608,-8388608,-8388608
10:45:20.173540,-8388608,-8388608,-8388608,-8388608,373761,-8388608,-8388608,-8388608
10:45:20.173540,-8388608,-8388608,-8388608,-8388608,377976,-8388608,-8388608,-8388608
10:45:20.173540,-8388608,-8388608,-8388608,-8388608,372401,-8388608,-8388608,-8388608
10:45:20.173540,-8388608,-8388608,-8388608,-8388608,361717,-8388608,-8388608,-8388608
10:45:20.190903,-8388608,-8388608,-8388608,-8388608,356314,-8388608,-8388608,-8388608
10:45:20.194052,-8388608,-8388608,-8388608,-8388608,350737,-8388608,-8388608,-8388608
10:45:20.195417,-8388608,-8388608,-8388608,-8388608,341983,-8388608,-8388608,-8388608
10:45:20.195417,-8388608,-8388608,-8388608,-8388608,343425,-8388608,-8388608,-8388608
10:45:20.206939,-8388608,-8388608,-8388608,-8388608,362079,-8388608,-8388608,-8388608
10:45:20.210922,-8388608,-8388608,-8388608,-8388608,378196,-8388608,-8388608,-8388608
10:45:20.213918,-8388608,-8388608,-8388608,-8388608,383384,-8388608,-8388608,-8388608
10:45:20.213918,-8388608,-8388608,-8388608,-8388608,384606,-8388608,-8388608,-8388608
10:45:20.223112,-8388608,-8388608,-8388608,-8388608,379872,-8388608,-8388608,-8388608
10:45:20.225843,-8388608,-8388608,-8388608,-8388608,377486,-8388608,-8388608,-8388608
10:45:20.230513,-8388608,-8388608,-8388608,-8388608,381073,-8388608,-8388608,-8388608
10:45:20.234454,-8388608,-8388608,-8388608,-8388608,382759,-8388608,-8388608,-8388608
10:45:20.237802,-8388608,-8388608,-8388608,-8388608,376059,-8388608,-8388608,-8388608
10:45:20.240293,-8388608,-8388608,-8388608,-8388608,370728,-8388608,-8388608,-8388608
10:45:20.240293,-8388608,-8388608,-8388608,-8388608,373888,-8388608,-8388608,-8388608
10:45:20.240293,-8388608,-8388608,-8388608,-8388608,376374,-8388608,-8388608,-8388608
10:45:20.240293,-8388608,-8388608,-8388608,-8388608,373646,-8388608,-8388608,-8388608
10:45:20.257731,-8388608,-8388608,-8388608,-8388608,370591,-8388608,-8388608,-8388608
10:45:20.257731,-8388608,-8388608,-8388608,-8388608,373517,-8388608,-8388608,-8388608
10:45:20.257731,-8388608,-8388608,-8388608,-8388608,378625,-8388608,-8388608,-8388608
10:45:20.257731,-8388608,-8388608,-8388608,-8388608,372749,-8388608,-8388608,-8388608
10:45:20.273265,-8388608,-8388608,-8388608,-8388608,371257,-8388608,-8388608,-8388608
10:45:20.273924,-8388608,-8388608,-8388608,-8388608,369414,-8388608,-8388608,-8388608
10:45:20.273924,-8388608,-8388608,-8388608,-8388608,366234,-8388608,-8388608,-8388608
10:45:20.273924,-8388608,-8388608,-8388608,-8388608,370003,-8388608,-8388608,-8388608
10:45:20.290399,-8388608,-8388608,-8388608,-8388608,372908,-8388608,-8388608,-8388608
10:45:20.290399,-8388608,-8388608,-8388608,-8388608,371734,-8388608,-8388608,-8388608
10:45:20.290399,-8388608,-8388608,-8388608,-8388608,372912,-8388608,-8388608,-8388608
10:45:20.290399,-8388608,-8388608,-8388608,-8388608,371355,-8388608,-8388608,-8388608
10:45:20.305582,-8388608,-8388608,-8388608,-8388608,369874,-8388608,-8388608,-8388608
10:45:20.309581,-8388608,-8388608,-8388608,-8388608,370416,-8388608,-8388608,-8388608
10:45:20.313220,-8388608,-8388608,-8388608,-8388608,371807,-8388608,-8388608,-8388608
10:45:20.313220,-8388608,-8388608,-8388608,-8388608,373435,-8388608,-8388608,-8388608
10:45:20.322172,-8388608,-8388608,-8388608,-8388608,373579,-8388608,-8388608,-8388608
10:45:20.323482,-8388608,-8388608,-8388608,-8388608,370488,-8388608,-8388608,-8388608
10:45:20.323482,-8388608,-8388608,-8388608,-8388608,367734,-8388608,-8388608,-8388608
10:45:20.323482,-8388608,-8388608,-8388608,-8388608,367844,-8388608,-8388608,-8388608
10:45:20.323482,-8388608,-8388608,-8388608,-8388608,366825,-8388608,-8388608,-8388608
10:45:20.340175,-8388608,-8388608,-8388608,-8388608,366448,-8388608,-8388608,-8388608
10:45:20.340175,-8388608,-8388608,-8388608,-8388608,370283,-8388608,-8388608,-8388608
10:45:20.340175,-8388608,-8388608,-8388608,-8388608,375186,-8388608,-8388608,-8388608
10:45:20.340175,-8388608,-8388608,-8388608,-8388608,375395,-8388608,-8388608,-8388608
10:45:20.357505,-8388608,-8388608,-8388608,-8388608,372696,-8388608,-8388608,-8388608
10:45:20.358037,-8388608,-8388608,-8388608,-8388608,368241,-8388608,-8388608,-8388608
10:45:20.358037,-8388608,-8388608,-8388608,-8388608,367529,-8388608,-8388608,-8388608
10:45:20.358037,-8388608,-8388608,-8388608,-8388608,365411,-8388608,-8388608,-8388608
10:45:20.374132,-8388608,-8388608,-8388608,-8388608,362048,-8388608,-8388608,-8388608
10:45:20.374132,-8388608,-8388608,-8388608,-8388608,364882,-8388608,-8388608,-8388608
10:45:20.374132,-8388608,-8388608,-8388608,-8388608,367376,-8388608,-8388608,-8388608
10:45:20.374132,-8388608,-8388608,-8388608,-8388608,365472,-8388608,-8388608,-8388608
10:45:20.389142,-8388608,-8388608,-8388608,-8388608,367693,-8388608,-8388608,-8388608
10:45:20.390623,-8388608,-8388608,-8388608,-8388608,367497,-8388608,-8388608,-8388608
10:45:20.390623,-8388608,-8388608,-8388608,-8388608,368621,-8388608,-8388608,-8388608
10:45:20.390623,-8388608,-8388608,-8388608,-8388608,367485,-8388608,-8388608,-8388608
10:45:20.406406,-8388608,-8388608,-8388608,-8388608,362141,-8388608,-8388608,-8388608
10:45:20.409473,-8388608,-8388608,-8388608,-8388608,359307,-8388608,-8388608,-8388608
10:45:20.412915,-8388608,-8388608,-8388608,-8388608,365218,-8388608,-8388608,-8388608
10:45:20.412915,-8388608,-8388608,-8388608,-8388608,366363,-8388608,-8388608,-8388608
10:45:20.412915,-8388608,-8388608,-8388608,-8388608,364521,-8388608,-8388608,-8388608
10:45:20.423173,-8388608,-8388608,-8388608,-8388608,365166,-8388608,-8388608,-8388608
10:45:20.429490,-8388608,-8388608,-8388608,-8388608,365590,-8388608,-8388608,-8388608
10:45:20.429490,-8388608,-8388608,-8388608,-8388608,364296,-8388608,-8388608,-8388608
10:45:20.438563,-8388608,-8388608,-8388608,-8388608,358974,-8388608,-8388608,-8388608
10:45:20.441569,-8388608,-8388608,-8388608,-8388608,354772,-8388608,-8388608,-8388608
10:45:20.445473,-8388608,-8388608,-8388608,-8388608,360197,-8388608,-8388608,-8388608
10:45:20.450107,-8388608,-8388608,-8388608,-8388608,369061,-8388608,-8388608,-8388608
10:45:20.454117,-8388608,-8388608,-8388608,-8388608,362498,-8388608,-8388608,-8388608
10:45:20.456263,-8388608,-8388608,-8388608,-8388608,361335,-8388608,-8388608,-8388608
10:45:20.456263,-8388608,-8388608,-8388608,-8388608,364263,-8388608,-8388608,-8388608
10:45:20.456263,-8388608,-8388608,-8388608,-8388608,365333,-8388608,-8388608,-8388608
10:45:20.456263,-8388608,-8388608,-8388608,-8388608,361756,-8388608,-8388608,-8388608
10:45:20.473255,-8388608,-8388608,-8388608,-8388608,360283,-8388608,-8388608,-8388608
10:45:20.473255,-8388608,-8388608,-8388608,-8388608,363884,-8388608,-8388608,-8388608
10:45:20.473255,-8388608,-8388608,-8388608,-8388608,367946,-8388608,-8388608,-8388608
10:45:20.473255,-8388608,-8388608,-8388608,-8388608,372125,-8388608,-8388608,-8388608
10:45:20.488877,-8388608,-8388608,-8388608,-8388608,369334,-8388608,-8388608,-8388608
10:45:20.490685,-8388608,-8388608,-8388608,-8388608,368223,-8388608,-8388608,-8388608
10:45:20.490685,-8388608,-8388608,-8388608,-8388608,367496,-8388608,-8388608,-8388608
10:45:20.490685,-8388608,-8388608,-8388608,-8388608,367400,-8388608,-8388608,-8388608
10:45:20.505207,-8388608,-8388608,-8388608,-8388608,367820,-8388608,-8388608,-8388608
10:45:20.509290,-8388608,-8388608,-8388608,-8388608,370958,-8388608,-8388608,-8388608
10:45:20.512086,-8388608,-8388608,-8388608,-8388608,369094,-8388608,-8388608,-8388608
10:45:20.512086,-8388608,-8388608,-8388608,-8388608,371737,-8388608,-8388608,-8388608
10:45:20.512086,-8388608,-8388608,-8388608,-8388608,374500,-8388608,-8388608,-8388608
10:45:20.522948,-8388608,-8388608,-8388608,-8388608,373040,-8388608,-8388608,-8388608
10:45:20.522948,-8388608,-8388608,-8388608,-8388608,370552,-8388608,-8388608,-8388608
10:45:20.522948,-8388608,-8388608,-8388608,-8388608,368641,-8388608,-8388608,-8388608
10:45:20.522948,-8388608,-8388608,-8388608,-8388608,373677,-8388608,-8388608,-8388608
10:45:20.539582,-8388608,-8388608,-8388608,-8388608,373411,-8388608,-8388608,-8388608
10:45:20.539582,-8388608,-8388608,-8388608,-8388608,369460,-8388608,-8388608,-8388608
10:45:20.539582,-8388608,-8388608,-8388608,-8388608,371471,-8388608,-8388608,-8388608
10:45:20.539582,-8388608,-8388608,-8388608,-8388608,370266,-8388608,-8388608,-8388608
10:45:20.556628,-8388608,-8388608,-8388608,-8388608,369692,-8388608,-8388608,-8388608
10:45:20.556628,-8388608,-8388608,-8388608,-8388608,373554,-8388608,-8388608,-8388608
10:45:20.556628,-8388608,-8388608,-8388608,-8388608,371799,-8388608,-8388608,-8388608
10:45:20.556628,-8388608,-8388608,-8388608,-8388608,371236,-8388608,-8388608,-8388608
10:45:20.571996,-8388608,-8388608,-8388608,-8388608,373826,-8388608,-8388608,-8388608
10:45:20.573376,-8388608,-8388608,-8388608,-8388608,371236,-8388608,-8388608,-8388608
10:45:20.573376,-8388608,-8388608,-8388608,-8388608,369281,-8388608,-8388608,-8388608
10:45:20.573376,-8388608,-8388608,-8388608,-8388608,375115,-8388608,-8388608,-8388608
10:45:20.589608,-8388608,-8388608,-8388608,-8388608,378958,-8388608,-8388608,-8388608
10:45:20.590607,-8388608,-8388608,-8388608,-8388608,374731,-8388608,-8388608,-8388608
10:45:20.590607,-8388608,-8388608,-8388608,-8388608,370648,-8388608,-8388608,-8388608
10:45:20.590607,-8388608,-8388608,-8388608,-8388608,370897,-8388608,-8388608,-8388608
10:45:20.606267,-8388608,-8388608,-8388608,-8388608,367799,-8388608,-8388608,-8388608
10:45:20.606267,-8388608,-8388608,-8388608,-8388608,364991,-8388608,-8388608,-8388608
10:45:20.606267,-8388608,-8388608,-8388608,-8388608,368314,-8388608,-8388608,-8388608
10:45:20.606267,-8388608,-8388608,-8388608,-8388608,372916,-8388608,-8388608,-8388608
10:45:20.622749,-8388608,-8388608,-8388608,-8388608,372459,-8388608,-8388608,-8388608
10:45:20.624751,-8388608,-8388608,-8388608,-8388608,371216,-8388608,-8388608,-8388608
10:45:20.628197,-8388608,-8388608,-8388608,-8388608,370168,-8388608,-8388608,-8388608
10:45:20.628197,-8388608,-8388608,-8388608,-8388608,366783,-8388608,-8388608,-8388608
10:45:20.628197,-8388608,-8388608,-8388608,-8388608,370520,-8388608,-8388608,-8388608
10:45:20.639304,-8388608,-8388608,-8388608,-8388608,372109,-8388608,-8388608,-8388608
10:45:20.644270,-8388608,-8388608,-8388608,-8388608,369334,-8388608,-8388608,-8388608
10:45:20.644270,-8388608,-8388608,-8388608,-8388608,369108,-8388608,-8388608,-8388608
10:45:20.644270,-8388608,-8388608,-8388608,-8388608,370227,-8388608,-8388608,-8388608
10:45:20.656098,-8388608,-8388608,-8388608,-8388608,369628,-8388608,-8388608,-8388608
10:45:20.660102,-8388608,-8388608,-8388608,-8388608,369544,-8388608,-8388608,-8388608
10:45:20.664138,-8388608,-8388608,-8388608,-8388608,371982,-8388608,-8388608,-8388608
10:45:20.669101,-8388608,-8388608,-8388608,-8388608,369498,-8388608,-8388608,-8388608
10:45:20.672911,-8388608,-8388608,-8388608,-8388608,369496,-8388608,-8388608,-8388608
10:45:20.672911,-8388608,-8388608,-8388608,-8388608,372333,-8388608,-8388608,-8388608
10:45:20.672911,-8388608,-8388608,-8388608,-8388608,370353,-8388608,-8388608,-8388608
10:45:20.672911,-8388608,-8388608,-8388608,-8388608,373312,-8388608,-8388608,-8388608
10:45:20.688350,-8388608,-8388608,-8388608,-8388608,373364,-8388608,-8388608,-8388608
10:45:20.689321,-8388608,-8388608,-8388608,-8388608,369563,-8388608,-8388608,-8388608
10:45:20.689321,-8388608,-8388608,-8388608,-8388608,366468,-8388608,-8388608,-8388608
10:45:20.689321,-8388608,-8388608,-8388608,-8388608,364720,-8388608,-8388608,-8388608
10:45:20.704328,-8388608,-8388608,-8388608,-8388608,370141,-8388608,-8388608,-8388608
10:45:20.706041,-8388608,-8388608,-8388608,-8388608,372831,-8388608,-8388608,-8388608
10:45:20.706041,-8388608,-8388608,-8388608,-8388608,372353,-8388608,-8388608,-8388608
10:45:20.706041,-8388608,-8388608,-8388608,-8388608,372210,-8388608,-8388608,-8388608
10:45:20.721164,-8388608,-8388608,-8388608,-8388608,369943,-8388608,-8388608,-8388608
10:45:20.724682,-8388608,-8388608,-8388608,-8388608,364262,-8388608,-8388608,-8388608
10:45:20.728096,-8388608,-8388608,-8388608,-8388608,366048,-8388608,-8388608,-8388608
10:45:20.728096,-8388608,-8388608,-8388608,-8388608,369285,-8388608,-8388608,-8388608
10:45:20.728096,-8388608,-8388608,-8388608,-8388608,371279,-8388608,-8388608,-8388608
10:45:20.739757,-8388608,-8388608,-8388608,-8388608,369433,-8388608,-8388608,-8388608
10:45:20.739757,-8388608,-8388608,-8388608,-8388608,370758,-8388608,-8388608,-8388608
10:45:20.739757,-8388608,-8388608,-8388608,-8388608,372463,-8388608,-8388608,-8388608
10:45:20.739757,-8388608,-8388608,-8388608,-8388608,372004,-8388608,-8388608,-8388608
10:45:20.756610,-8388608,-8388608,-8388608,-8388608,366150,-8388608,-8388608,-8388608
10:45:20.756610,-8388608,-8388608,-8388608,-8388608,362553,-8388608,-8388608,-8388608
10:45:20.756610,-8388608,-8388608,-8388608,-8388608,363698,-8388608,-8388608,-8388608
10:45:20.756610,-8388608,-8388608,-8388608,-8388608,370139,-8388608,-8388608,-8388608
10:45:20.773138,-8388608,-8388608,-8388608,-8388608,370619,-8388608,-8388608,-8388608
10:45:20.773681,-8388608,-8388608,-8388608,-8388608,370044,-8388608,-8388608,-8388608
10:45:20.773681,-8388608,-8388608,-8388608,-8388608,366805,-8388608,-8388608,-8388608
10:45:20.773681,-8388608,-8388608,-8388608,-8388608,364409,-8388608,-8388608,-8388608
10:45:20.773681,-8388608,-8388608,-8388608,-8388608,367569,-8388608,-8388608,-8388608
10:45:20.790252,-8388608,-8388608,-8388608,-8388608,365658,-8388608,-8388608,-8388608
10:45:20.790252,-8388608,-8388608,-8388608,-8388608,368908,-8388608,-8388608,-8388608
10:45:20.790252,-8388608,-8388608,-8388608,-8388608,368153,-8388608,-8388608,-8388608
10:45:20.805096,-8388608,-8388608,-8388608,-8388608,369169,-8388608,-8388608,-8388608
10:45:20.806714,-8388608,-8388608,-8388608,-8388608,372153,-8388608,-8388608,-8388608
10:45:20.806714,-8388608,-8388608,-8388608,-8388608,369173,-8388608,-8388608,-8388608
10:45:20.806714,-8388608,-8388608,-8388608,-8388608,368376,-8388608,-8388608,-8388608
10:45:20.806714,-8388608,-8388608,-8388608,-8388608,369579,-8388608,-8388608,-8388608
10:45:20.824788,-8388608,-8388608,-8388608,-8388608,373095,-8388608,-8388608,-8388608
10:45:20.829110,-8388608,-8388608,-8388608,-8388608,369063,-8388608,-8388608,-8388608
10:45:20.829110,-8388608,-8388608,-8388608,-8388608,369304,-8388608,-8388608,-8388608
10:45:20.829110,-8388608,-8388608,-8388608,-8388608,370555,-8388608,-8388608,-8388608
10:45:20.839324,-8388608,-8388608,-8388608,-8388608,371597,-8388608,-8388608,-8388608
10:45:20.844130,-8388608,-8388608,-8388608,-8388608,371576,-8388608,-8388608,-8388608
10:45:20.845144,-8388608,-8388608,-8388608,-8388608,368140,-8388608,-8388608,-8388608
10:45:20.845144,-8388608,-8388608,-8388608,-8388608,370618,-8388608,-8388608,-8388608
10:45:20.857006,-8388608,-8388608,-8388608,-8388608,369751,-8388608,-8388608,-8388608
10:45:20.861321,-8388608,-8388608,-8388608,-8388608,366339,-8388608,-8388608,-8388608
10:45:20.865695,-8388608,-8388608,-8388608,-8388608,367337,-8388608,-8388608,-8388608
10:45:20.869687,-8388608,-8388608,-8388608,-8388608,373698,-8388608,-8388608,-8388608
10:45:20.871701,-8388608,-8388608,-8388608,-8388608,372534,-8388608,-8388608,-8388608
10:45:20.872692,-8388608,-8388608,-8388608,-8388608,368352,-8388608,-8388608,-8388608
10:45:20.872692,-8388608,-8388608,-8388608,-8388608,365823,-8388608,-8388608,-8388608
10:45:20.872692,-8388608,-8388608,-8388608,-8388608,355659,-8388608,-8388608,-8388608
10:45:20.889151,-8388608,-8388608,-8388608,-8388608,346416,-8388608,-8388608,-8388608
10:45:20.889765,-8388608,-8388608,-8388608,-8388608,343330,-8388608,-8388608,-8388608
10:45:20.889765,-8388608,-8388608,-8388608,-8388608,343751,-8388608,-8388608,-8388608
10:45:20.889765,-8388608,-8388608,-8388608,-8388608,349126,-8388608,-8388608,-8388608
10:45:20.904308,-8388608,-8388608,-8388608,-8388608,363748,-8388608,-8388608,-8388608
10:45:20.906129,-8388608,-8388608,-8388608,-8388608,376751,-8388608,-8388608,-8388608
10:45:20.906129,-8388608,-8388608,-8388608,-8388608,379376,-8388608,-8388608,-8388608
10:45:20.906129,-8388608,-8388608,-8388608,-8388608,379622,-8388608,-8388608,-8388608
10:45:20.921566,-8388608,-8388608,-8388608,-8388608,379626,-8388608,-8388608,-8388608
10:45:20.923299,-8388608,-8388608,-8388608,-8388608,378634,-8388608,-8388608,-8388608
10:45:20.923299,-8388608,-8388608,-8388608,-8388608,375441,-8388608,-8388608,-8388608
10:45:20.923299,-8388608,-8388608,-8388608,-8388608,373759,-8388608,-8388608,-8388608
10:45:20.923299,-8388608,-8388608,-8388608,-8388608,371678,-8388608,-8388608,-8388608
10:45:20.942288,-8388608,-8388608,-8388608,-8388608,369844,-8388608,-8388608,-8388608
10:45:20.944668,-8388608,-8388608,-8388608,-8388608,370187,-8388608,-8388608,-8388608
10:45:20.944668,-8388608,-8388608,-8388608,-8388608,366536,-8388608,-8388608,-8388608
10:45:20.944668,-8388608,-8388608,-8388608,-8388608,362629,-8388608,-8388608,-8388608
10:45:20.955930,-8388608,-8388608,-8388608,-8388608,365571,-8388608,-8388608,-8388608
10:45:20.955930,-8388608,-8388608,-8388608,-8388608,370573,-8388608,-8388608,-8388608
10:45:20.955930,-8388608,-8388608,-8388608,-8388608,370339,-8388608,-8388608,-8388608
10:45:20.955930,-8388608,-8388608,-8388608,-8388608,365834,-8388608,-8388608,-8388608
10:45:20.972750,-8388608,-8388608,-8388608,-8388608,364304,-8388608,-8388608,-8388608
10:45:20.972750,-8388608,-8388608,-8388608,-8388608,368499,-8388608,-8388608,-8388608
10:45:20.972750,-8388608,-8388608,-8388608,-8388608,369891,-8388608,-8388608,-8388608
10:45:20.972750,-8388608,-8388608,-8388608,-8388608,367323,-8388608,-8388608,-8388608
10:45:20.988121,-8388608,-8388608,-8388608,-8388608,366447,-8388608,-8388608,-8388608
10:45:20.989713,-8388608,-8388608,-8388608,-8388608,365428,-8388608,-8388608,-8388608
10:45:20.989713,-8388608,-8388608,-8388608,-8388608,367723,-8388608,-8388608,-8388608
10:45:20.989713,-8388608,-8388608,-8388608,-8388608,367330,-8388608,-8388608,-8388608
10:45:21.004324,-8388608,-8388608,-8388608,-8388608,363283,-8388608,-8388608,-8388608
10:45:21.005756,-8388608,-8388608,-8388608,-8388608,366730,-8388608,-8388608,-8388608
10:45:21.005756,-8388608,-8388608,-8388608,-8388608,368444,-8388608,-8388608,-8388608
10:45:21.005756,-8388608,-8388608,-8388608,-8388608,367870,-8388608,-8388608,-8388608
10:45:21.005756,-8388608,-8388608,-8388608,-8388608,364905,-8388608,-8388608,-8388608
10:45:21.022908,-8388608,-8388608,-8388608,-8388608,364971,-8388608,-8388608,-8388608
10:45:21.022908,-8388608,-8388608,-8388608,-8388608,367670,-8388608,-8388608,-8388608
10:45:21.022908,-8388608,-8388608,-8388608,-8388608,362298,-8388608,-8388608,-8388608
10:45:21.022908,-8388608,-8388608,-8388608,-8388608,362793,-8388608,-8388608,-8388608
10:45:21.040205,-8388608,-8388608,-8388608,-8388608,361649,-8388608,-8388608,-8388608
10:45:21.044289,-8388608,-8388608,-8388608,-8388608,359782,-8388608,-8388608,-8388608
10:45:21.045595,-8388608,-8388608,-8388608,-8388608,362769,-8388608,-8388608,-8388608
10:45:21.045595,-8388608,-8388608,-8388608,-8388608,363208,-8388608,-8388608,-8388608
10:45:21.055969,-8388608,-8388608,-8388608,-8388608,362944,-8388608,-8388608,-8388608
10:45:21.059761,-8388608,-8388608,-8388608,-8388608,369018,-8388608,-8388608,-8388608
10:45:21.062454,-8388608,-8388608,-8388608,-8388608,367833,-8388608,-8388608,-8388608
10:45:21.062454,-8388608,-8388608,-8388608,-8388608,361758,-8388608,-8388608,-8388608
10:45:21.072178,-8388608,-8388608,-8388608,-8388608,357953,-8388608,-8388608,-8388608
10:45:21.076086,-8388608,-8388608,-8388608,-8388608,361732,-8388608,-8388608,-8388608
10:45:21.081999,-8388608,-8388608,-8388608,-8388608,364215,-8388608,-8388608,-8388608
10:45:21.084658,-8388608,-8388608,-8388608,-8388608,360608,-8388608,-8388608,-8388608
10:45:21.088050,-8388608,-8388608,-8388608,-8388608,360649,-8388608,-8388608,-8388608
10:45:21.089250,-8388608,-8388608,-8388608,-8388608,361515,-8388608,-8388608,-8388608
10:45:21.089250,-8388608,-8388608,-8388608,-8388608,359446,-8388608,-8388608,-8388608
10:45:21.089250,-8388608,-8388608,-8388608,-8388608,362393,-8388608,-8388608,-8388608
10:45:21.104762,-8388608,-8388608,-8388608,-8388608,359610,-8388608,-8388608,-8388608
10:45:21.106720,-8388608,-8388608,-8388608,-8388608,355454,-8388608,-8388608,-8388608
10:45:21.106720,-8388608,-8388608,-8388608,-8388608,352508,-8388608,-8388608,-8388608
10:45:21.106720,-8388608,-8388608,-8388608,-8388608,349886,-8388608,-8388608,-8388608
10:45:21.106720,-8388608,-8388608,-8388608,-8388608,358020,-8388608,-8388608,-8388608
10:45:21.122701,-8388608,-8388608,-8388608,-8388608,360540,-8388608,-8388608,-8388608
10:45:21.122701,-8388608,-8388608,-8388608,-8388608,354576,-8388608,-8388608,-8388608
10:45:21.122701,-8388608,-8388608,-8388608,-8388608,352581,-8388608,-8388608,-8388608
10:45:21.122701,-8388608,-8388608,-8388608,-8388608,356473,-8388608,-8388608,-8388608
10:45:21.139767,-8388608,-8388608,-8388608,-8388608,356678,-8388608,-8388608,-8388608
10:45:21.139767,-8388608,-8388608,-8388608,-8388608,354626,-8388608,-8388608,-8388608
10:45:21.139767,-8388608,-8388608,-8388608,-8388608,353144,-8388608,-8388608,-8388608
10:45:21.139767,-8388608,-8388608,-8388608,-8388608,361569,-8388608,-8388608,-8388608
10:45:21.156732,-8388608,-8388608,-8388608,-8388608,359184,-8388608,-8388608,-8388608
10:45:21.160731,-8388608,-8388608,-8388608,-8388608,355524,-8388608,-8388608,-8388608
10:45:21.162961,-8388608,-8388608,-8388608,-8388608,354491,-8388608,-8388608,-8388608
10:45:21.162961,-8388608,-8388608,-8388608,-8388608,356516,-8388608,-8388608,-8388608
10:45:21.172689,-8388608,-8388608,-8388608,-8388608,359039,-8388608,-8388608,-8388608
10:45:21.172689,-8388608,-8388608,-8388608,-8388608,363794,-8388608,-8388608,-8388608
10:45:21.172689,-8388608,-8388608,-8388608,-8388608,362413,-8388608,-8388608,-8388608
10:45:21.172689,-8388608,-8388608,-8388608,-8388608,364789,-8388608,-8388608,-8388608
10:45:21.190147,-8388608,-8388608,-8388608,-8388608,367989,-8388608,-8388608,-8388608
10:45:21.190147,-8388608,-8388608,-8388608,-8388608,361936,-8388608,-8388608,-8388608
10:45:21.190147,-8388608,-8388608,-8388608,-8388608,361469,-8388608,-8388608,-8388608
10:45:21.190147,-8388608,-8388608,-8388608,-8388608,360953,-8388608,-8388608,-8388608
10:45:21.190147,-8388608,-8388608,-8388608,-8388608,363008,-8388608,-8388608,-8388608
10:45:21.206868,-8388608,-8388608,-8388608,-8388608,366499,-8388608,-8388608,-8388608
10:45:21.206868,-8388608,-8388608,-8388608,-8388608,366966,-8388608,-8388608,-8388608
10:45:21.206868,-8388608,-8388608,-8388608,-8388608,364961,-8388608,-8388608,-8388608
10:45:21.206868,-8388608,-8388608,-8388608,-8388608,362288,-8388608,-8388608,-8388608
10:45:21.222903,-8388608,-8388608,-8388608,-8388608,367916,-8388608,-8388608,-8388608
10:45:21.222903,-8388608,-8388608,-8388608,-8388608,368216,-8388608,-8388608,-8388608
10:45:21.222903,-8388608,-8388608,-8388608,-8388608,367861,-8388608,-8388608,-8388608
10:45:21.222903,-8388608,-8388608,-8388608,-8388608,371501,-8388608,-8388608,-8388608
10:45:21.240012,-8388608,-8388608,-8388608,-8388608,368050,-8388608,-8388608,-8388608
10:45:21.240012,-8388608,-8388608,-8388608,-8388608,365407,-8388608,-8388608,-8388608
10:45:21.240012,-8388608,-8388608,-8388608,-8388608,366269,-8388608,-8388608,-8388608
10:45:21.240012,-8388608,-8388608,-8388608,-8388608,368291,-8388608,-8388608,-8388608
10:45:21.255934,-8388608,-8388608,-8388608,-8388608,367544,-8388608,-8388608,-8388608
10:45:21.261508,-8388608,-8388608,-8388608,-8388608,367561,-8388608,-8388608,-8388608
10:45:21.261508,-8388608,-8388608,-8388608,-8388608,365899,-8388608,-8388608,-8388608
10:45:21.261508,-8388608,-8388608,-8388608,-8388608,368360,-8388608,-8388608,-8388608
10:45:21.272188,-8388608,-8388608,-8388608,-8388608,371388,-8388608,-8388608,-8388608
10:45:21.277271,-8388608,-8388608,-8388608,-8388608,369606,-8388608,-8388608,-8388608
10:45:21.278212,-8388608,-8388608,-8388608,-8388608,367503,-8388608,-8388608,-8388608
10:45:21.278212,-8388608,-8388608,-8388608,-8388608,364460,-8388608,-8388608,-8388608
10:45:21.278212,-8388608,-8388608,-8388608,-8388608,362474,-8388608,-8388608,-8388608
10:45:21.292033,-8388608,-8388608,-8388608,-8388608,365726,-8388608,-8388608,-8388608
10:45:21.297255,-8388608,-8388608,-8388608,-8388608,370886,-8388608,-8388608,-8388608
10:45:21.300197,-8388608,-8388608,-8388608,-8388608,373881,-8388608,-8388608,-8388608
10:45:21.304013,-8388608,-8388608,-8388608,-8388608,365628,-8388608,-8388608,-8388608
10:45:21.305591,-8388608,-8388608,-8388608,-8388608,361860,-8388608,-8388608,-8388608
10:45:21.305591,-8388608,-8388608,-8388608,-8388608,364754,-8388608,-8388608,-8388608
10:45:21.305591,-8388608,-8388608,-8388608,-8388608,367255,-8388608,-8388608,-8388608
10:45:21.305591,-8388608,-8388608,-8388608,-8388608,365479,-8388608,-8388608,-8388608
10:45:21.322832,-8388608,-8388608,-8388608,-8388608,367054,-8388608,-8388608,-8388608
10:45:21.322832,-8388608,-8388608,-8388608,-8388608,363447,-8388608,-8388608,-8388608
10:45:21.322832,-8388608,-8388608,-8388608,-8388608,361638,-8388608,-8388608,-8388608
10:45:21.322832,-8388608,-8388608,-8388608,-8388608,365769,-8388608,-8388608,-8388608
10:45:21.339628,-8388608,-8388608,-8388608,-8388608,365211,-8388608,-8388608,-8388608
10:45:21.339628,-8388608,-8388608,-8388608,-8388608,365456,-8388608,-8388608,-8388608
10:45:21.339628,-8388608,-8388608,-8388608,-8388608,366425,-8388608,-8388608,-8388608
10:45:21.339628,-8388608,-8388608,-8388608,-8388608,368826,-8388608,-8388608,-8388608
10:45:21.356569,-8388608,-8388608,-8388608,-8388608,369101,-8388608,-8388608,-8388608
10:45:21.360579,-8388608,-8388608,-8388608,-8388608,365118,-8388608,-8388608,-8388608
10:45:21.362461,-8388608,-8388608,-8388608,-8388608,363759,-8388608,-8388608,-8388608
10:45:21.362461,-8388608,-8388608,-8388608,-8388608,364158,-8388608,-8388608,-8388608
10:45:21.371264,-8388608,-8388608,-8388608,-8388608,367553,-8388608,-8388608,-8388608
10:45:21.372550,-8388608,-8388608,-8388608,-8388608,370299,-8388608,-8388608,-8388608
10:45:21.372550,-8388608,-8388608,-8388608,-8388608,367158,-8388608,-8388608,-8388608
10:45:21.372550,-8388608,-8388608,-8388608,-8388608,362279,-8388608,-8388608,-8388608
10:45:21.387730,-8388608,-8388608,-8388608,-8388608,361640,-8388608,-8388608,-8388608
10:45:21.389075,-8388608,-8388608,-8388608,-8388608,369795,-8388608,-8388608,-8388608
10:45:21.389075,-8388608,-8388608,-8388608,-8388608,370208,-8388608,-8388608,-8388608
10:45:21.389075,-8388608,-8388608,-8388608,-8388608,363481,-8388608,-8388608,-8388608
10:45:21.389075,-8388608,-8388608,-8388608,-8388608,363333,-8388608,-8388608,-8388608
10:45:21.405862,-8388608,-8388608,-8388608,-8388608,363861,-8388608,-8388608,-8388608
10:45:21.405862,-8388608,-8388608,-8388608,-8388608,364674,-8388608,-8388608,-8388608
10:45:21.405862,-8388608,-8388608,-8388608,-8388608,367495,-8388608,-8388608,-8388608
10:45:21.421229,-8388608,-8388608,-8388608,-8388608,371237,-8388608,-8388608,-8388608
10:45:21.422648,-8388608,-8388608,-8388608,-8388608,364903,-8388608,-8388608,-8388608
10:45:21.422648,-8388608,-8388608,-8388608,-8388608,363732,-8388608,-8388608,-8388608
10:45:21.422648,-8388608,-8388608,-8388608,-8388608,366817,-8388608,-8388608,-8388608
10:45:21.422648,-8388608,-8388608,-8388608,-8388608,367591,-8388608,-8388608,-8388608
10:45:21.439396,-8388608,-8388608,-8388608,-8388608,363363,-8388608,-8388608,-8388608
10:45:21.439396,-8388608,-8388608,-8388608,-8388608,362459,-8388608,-8388608,-8388608
10:45:21.439396,-8388608,-8388608,-8388608,-8388608,367263,-8388608,-8388608,-8388608
10:45:21.439396,-8388608,-8388608,-8388608,-8388608,366357,-8388608,-8388608,-8388608
10:45:21.455883,-8388608,-8388608,-8388608,-8388608,363691,-8388608,-8388608,-8388608
10:45:21.455883,-8388608,-8388608,-8388608,-8388608,364612,-8388608,-8388608,-8388608
10:45:21.455883,-8388608,-8388608,-8388608,-8388608,364988,-8388608,-8388608,-8388608
10:45:21.455883,-8388608,-8388608,-8388608,-8388608,362243,-8388608,-8388608,-8388608
10:45:21.471131,-8388608,-8388608,-8388608,-8388608,360056,-8388608,-8388608,-8388608
10:45:21.476139,-8388608,-8388608,-8388608,-8388608,363758,-8388608,-8388608,-8388608
10:45:21.479224,-8388608,-8388608,-8388608,-8388608,362426,-8388608,-8388608,-8388608
10:45:21.479224,-8388608,-8388608,-8388608,-8388608,360615,-8388608,-8388608,-8388608
10:45:21.487709,-8388608,-8388608,-8388608,-8388608,363262,-8388608,-8388608,-8388608
10:45:21.492286,-8388608,-8388608,-8388608,-8388608,363816,-8388608,-8388608,-8388608
10:45:21.494535,-8388608,-8388608,-8388608,-8388608,362693,-8388608,-8388608,-8388608
10:45:21.494535,-8388608,-8388608,-8388608,-8388608,364972,-8388608,-8388608,-8388608
10:45:21.494535,-8388608,-8388608,-8388608,-8388608,371047,-8388608,-8388608,-8388608
10:45:21.508952,-8388608,-8388608,-8388608,-8388608,368147,-8388608,-8388608,-8388608
10:45:21.514199,-8388608,-8388608,-8388608,-8388608,363861,-8388608,-8388608,-8388608
10:45:21.517239,-8388608,-8388608,-8388608,-8388608,365526,-8388608,-8388608,-8388608
10:45:21.520075,-8388608,-8388608,-8388608,-8388608,361422,-8388608,-8388608,-8388608
10:45:21.522173,-8388608,-8388608,-8388608,-8388608,363626,-8388608,-8388608,-8388608
10:45:21.522173,-8388608,-8388608,-8388608,-8388608,365131,-8388608,-8388608,-8388608
10:45:21.522173,-8388608,-8388608,-8388608,-8388608,371055,-8388608,-8388608,-8388608
10:45:21.522173,-8388608,-8388608,-8388608,-8388608,369041,-8388608,-8388608,-8388608
10:45:21.539467,-8388608,-8388608,-8388608,-8388608,366525,-8388608,-8388608,-8388608
10:45:21.539467,-8388608,-8388608,-8388608,-8388608,363484,-8388608,-8388608,-8388608
10:45:21.539467,-8388608,-8388608,-8388608,-8388608,359056,-8388608,-8388608,-8388608
10:45:21.539467,-8388608,-8388608,-8388608,-8388608,364609,-8388608,-8388608,-8388608
10:45:21.554374,-8388608,-8388608,-8388608,-8388608,369035,-8388608,-8388608,-8388608
10:45:21.556251,-8388608,-8388608,-8388608,-8388608,365182,-8388608,-8388608,-8388608
10:45:21.556251,-8388608,-8388608,-8388608,-8388608,366232,-8388608,-8388608,-8388608
10:45:21.556251,-8388608,-8388608,-8388608,-8388608,366473,-8388608,-8388608,-8388608
10:45:21.572101,-8388608,-8388608,-8388608,-8388608,368060,-8388608,-8388608,-8388608
10:45:21.576168,-8388608,-8388608,-8388608,-8388608,370995,-8388608,-8388608,-8388608
10:45:21.579406,-8388608,-8388608,-8388608,-8388608,368447,-8388608,-8388608,-8388608
10:45:21.579406,-8388608,-8388608,-8388608,-8388608,365341,-8388608,-8388608,-8388608
10:45:21.589116,-8388608,-8388608,-8388608,-8388608,357033,-8388608,-8388608,-8388608
10:45:21.589116,-8388608,-8388608,-8388608,-8388608,345519,-8388608,-8388608,-8388608
10:45:21.589116,-8388608,-8388608,-8388608,-8388608,336504,-8388608,-8388608,-8388608
10:45:21.589116,-8388608,-8388608,-8388608,-8388608,333028,-8388608,-8388608,-8388608
10:45:21.589116,-8388608,-8388608,-8388608,-8388608,336946,-8388608,-8388608,-8388608
10:45:21.606389,-8388608,-8388608,-8388608,-8388608,349711,-8388608,-8388608,-8388608
10:45:21.606389,-8388608,-8388608,-8388608,-8388608,363468,-8388608,-8388608,-8388608
10:45:21.606389,-8388608,-8388608,-8388608,-8388608,374595,-8388608,-8388608,-8388608
10:45:21.606389,-8388608,-8388608,-8388608,-8388608,379099,-8388608,-8388608,-8388608
10:45:21.622406,-8388608,-8388608,-8388608,-8388608,376916,-8388608,-8388608,-8388608
10:45:21.622406,-8388608,-8388608,-8388608,-8388608,371857,-8388608,-8388608,-8388608
10:45:21.622406,-8388608,-8388608,-8388608,-8388608,366998,-8388608,-8388608,-8388608
10:45:21.622406,-8388608,-8388608,-8388608,-8388608,363053,-8388608,-8388608,-8388608
10:45:21.639188,-8388608,-8388608,-8388608,-8388608,367271,-8388608,-8388608,-8388608
10:45:21.639748,-8388608,-8388608,-8388608,-8388608,368371,-8388608,-8388608,-8388608
10:45:21.639748,-8388608,-8388608,-8388608,-8388608,367478,-8388608,-8388608,-8388608
10:45:21.639748,-8388608,-8388608,-8388608,-8388608,368631,-8388608,-8388608,-8388608
10:45:21.655354,-8388608,-8388608,-8388608,-8388608,367919,-8388608,-8388608,-8388608
10:45:21.655879,-8388608,-8388608,-8388608,-8388608,366373,-8388608,-8388608,-8388608
10:45:21.655879,-8388608,-8388608,-8388608,-8388608,364578,-8388608,-8388608,-8388608
10:45:21.655879,-8388608,-8388608,-8388608,-8388608,361467,-8388608,-8388608,-8388608
10:45:21.672576,-8388608,-8388608,-8388608,-8388608,363413,-8388608,-8388608,-8388608
10:45:21.672576,-8388608,-8388608,-8388608,-8388608,363071,-8388608,-8388608,-8388608
10:45:21.672576,-8388608,-8388608,-8388608,-8388608,364128,-8388608,-8388608,-8388608
10:45:21.672576,-8388608,-8388608,-8388608,-8388608,365195,-8388608,-8388608,-8388608
10:45:21.687586,-8388608,-8388608,-8388608,-8388608,361482,-8388608,-8388608,-8388608
10:45:21.691403,-8388608,-8388608,-8388608,-8388608,359293,-8388608,-8388608,-8388608
10:45:21.695356,-8388608,-8388608,-8388608,-8388608,361135,-8388608,-8388608,-8388608
10:45:21.695799,-8388608,-8388608,-8388608,-8388608,361196,-8388608,-8388608,-8388608
10:45:21.704110,-8388608,-8388608,-8388608,-8388608,365041,-8388608,-8388608,-8388608
10:45:21.706626,-8388608,-8388608,-8388608,-8388608,363379,-8388608,-8388608,-8388608
10:45:21.708583,-8388608,-8388608,-8388608,-8388608,363566,-8388608,-8388608,-8388608
10:45:21.714009,-8388608,-8388608,-8388608,-8388608,363163,-8388608,-8388608,-8388608
10:45:21.714009,-8388608,-8388608,-8388608,-8388608,360410,-8388608,-8388608,-8388608
10:45:21.722779,-8388608,-8388608,-8388608,-8388608,360792,-8388608,-8388608,-8388608
10:45:21.727640,-8388608,-8388608,-8388608,-8388608,358169,-8388608,-8388608,-8388608
10:45:21.732522,-8388608,-8388608,-8388608,-8388608,359882,-8388608,-8388608,-8388608
10:45:21.736519,-8388608,-8388608,-8388608,-8388608,362140,-8388608,-8388608,-8388608
10:45:21.738762,-8388608,-8388608,-8388608,-8388608,362819,-8388608,-8388608,-8388608
10:45:21.738762,-8388608,-8388608,-8388608,-8388608,365436,-8388608,-8388608,-8388608
10:45:21.738762,-8388608,-8388608,-8388608,-8388608,363409,-8388608,-8388608,-8388608
10:45:21.738762,-8388608,-8388608,-8388608,-8388608,360261,-8388608,-8388608,-8388608
10:45:21.755175,-8388608,-8388608,-8388608,-8388608,360183,-8388608,-8388608,-8388608
10:45:21.755175,-8388608,-8388608,-8388608,-8388608,363111,-8388608,-8388608,-8388608
10:45:21.755175,-8388608,-8388608,-8388608,-8388608,357851,-8388608,-8388608,-8388608
10:45:21.755175,-8388608,-8388608,-8388608,-8388608,358741,-8388608,-8388608,-8388608
10:45:21.770800,-8388608,-8388608,-8388608,-8388608,362106,-8388608,-8388608,-8388608
10:45:21.772455,-8388608,-8388608,-8388608,-8388608,359626,-8388608,-8388608,-8388608
10:45:21.772455,-8388608,-8388608,-8388608,-8388608,352550,-8388608,-8388608,-8388608
10:45:21.772455,-8388608,-8388608,-8388608,-8388608,352790,-8388608,-8388608,-8388608
10:45:21.772455,-8388608,-8388608,-8388608,-8388608,357452,-8388608,-8388608,-8388608
10:45:21.790688,-8388608,-8388608,-8388608,-8388608,358219,-8388608,-8388608,-8388608
10:45:21.794278,-8388608,-8388608,-8388608,-8388608,359664,-8388608,-8388608,-8388608
10:45:21.795766,-8388608,-8388608,-8388608,-8388608,356683,-8388608,-8388608,-8388608
10:45:21.795766,-8388608,-8388608,-8388608,-8388608,356086,-8388608,-8388608,-8388608
10:45:21.805342,-8388608,-8388608,-8388608,-8388608,356336,-8388608,-8388608,-8388608
10:45:21.805342,-8388608,-8388608,-8388608,-8388608,354734,-8388608,-8388608,-8388608
10:45:21.805342,-8388608,-8388608,-8388608,-8388608,355985,-8388608,-8388608,-8388608
10:45:21.805342,-8388608,-8388608,-8388608,-8388608,353017,-8388608,-8388608,-8388608
10:45:21.822247,-8388608,-8388608,-8388608,-8388608,354048,-8388608,-8388608,-8388608
10:45:21.822247,-8388608,-8388608,-8388608,-8388608,352121,-8388608,-8388608,-8388608
10:45:21.822247,-8388608,-8388608,-8388608,-8388608,352710,-8388608,-8388608,-8388608
10:45:21.822247,-8388608,-8388608,-8388608,-8388608,354771,-8388608,-8388608,-8388608
10:45:21.838959,-8388608,-8388608,-8388608,-8388608,350366,-8388608,-8388608,-8388608
10:45:21.838959,-8388608,-8388608,-8388608,-8388608,355333,-8388608,-8388608,-8388608
10:45:21.838959,-8388608,-8388608,-8388608,-8388608,353958,-8388608,-8388608,-8388608
10:45:21.838959,-8388608,-8388608,-8388608,-8388608,351443,-8388608,-8388608,-8388608
10:45:21.855318,-8388608,-8388608,-8388608,-8388608,352906,-8388608,-8388608,-8388608
10:45:21.856188,-8388608,-8388608,-8388608,-8388608,352811,-8388608,-8388608,-8388608
10:45:21.856188,-8388608,-8388608,-8388608,-8388608,353302,-8388608,-8388608,-8388608
10:45:21.856188,-8388608,-8388608,-8388608,-8388608,351278,-8388608,-8388608,-8388608
10:45:21.870741,-8388608,-8388608,-8388608,-8388608,358093,-8388608,-8388608,-8388608
10:45:21.872217,-8388608,-8388608,-8388608,-8388608,360594,-8388608,-8388608,-8388608
10:45:21.872217,-8388608,-8388608,-8388608,-8388608,358159,-8388608,-8388608,-8388608
10:45:21.872217,-8388608,-8388608,-8388608,-8388608,358138,-8388608,-8388608,-8388608
10:45:21.872217,-8388608,-8388608,-8388608,-8388608,357273,-8388608,-8388608,-8388608
10:45:21.889422,-8388608,-8388608,-8388608,-8388608,357722,-8388608,-8388608,-8388608
10:45:21.889422,-8388608,-8388608,-8388608,-8388608,358372,-8388608,-8388608,-8388608
10:45:21.889422,-8388608,-8388608,-8388608,-8388608,361800,-8388608,-8388608,-8388608
10:45:21.889422,-8388608,-8388608,-8388608,-8388608,363248,-8388608,-8388608,-8388608
10:45:21.905819,-8388608,-8388608,-8388608,-8388608,362301,-8388608,-8388608,-8388608
10:45:21.909820,-8388608,-8388608,-8388608,-8388608,362320,-8388608,-8388608,-8388608
10:45:21.915153,-8388608,-8388608,-8388608,-8388608,361653,-8388608,-8388608,-8388608
10:45:21.916182,-8388608,-8388608,-8388608,-8388608,363109,-8388608,-8388608,-8388608
10:45:21.925622,-8388608,-8388608,-8388608,-8388608,357608,-8388608,-8388608,-8388608
10:45:21.928622,-8388608,-8388608,-8388608,-8388608,357209,-8388608,-8388608,-8388608
10:45:21.931625,-8388608,-8388608,-8388608,-8388608,367555,-8388608,-8388608,-8388608
10:45:21.934065,-8388608,-8388608,-8388608,-8388608,366313,-8388608,-8388608,-8388608
10:45:21.938671,-8388608,-8388608,-8388608,-8388608,365841,-8388608,-8388608,-8388608
10:45:21.938671,-8388608,-8388608,-8388608,-8388608,362917,-8388608,-8388608,-8388608
10:45:21.938671,-8388608,-8388608,-8388608,-8388608,365658,-8388608,-8388608,-8388608
10:45:21.938671,-8388608,-8388608,-8388608,-8388608,368089,-8388608,-8388608,-8388608
10:45:21.953891,-8388608,-8388608,-8388608,-8388608,362519,-8388608,-8388608,-8388608
10:45:21.958765,-8388608,-8388608,-8388608,-8388608,363296,-8388608,-8388608,-8388608
10:45:21.962766,-8388608,-8388608,-8388608,-8388608,363599,-8388608,-8388608,-8388608
10:45:21.966784,-8388608,-8388608,-8388608,-8388608,365966,-8388608,-8388608,-8388608
10:45:21.971319,-8388608,-8388608,-8388608,-8388608,364000,-8388608,-8388608,-8388608
10:45:21.975810,-8388608,-8388608,-8388608,-8388608,365218,-8388608,-8388608,-8388608
10:45:21.978835,-8388608,-8388608,-8388608,-8388608,364367,-8388608,-8388608,-8388608
10:45:21.982818,-8388608,-8388608,-8388608,-8388608,364040,-8388608,-8388608,-8388608
10:45:21.987303,-8388608,-8388608,-8388608,-8388608,362546,-8388608,-8388608,-8388608
10:45:21.992177,-8388608,-8388608,-8388608,-8388608,361643,-8388608,-8388608,-8388608
10:45:21.994925,-8388608,-8388608,-8388608,-8388608,360688,-8388608,-8388608,-8388608
10:45:21.996485,-8388608,-8388608,-8388608,-8388608,362489,-8388608,-8388608,-8388608
10:45:21.996485,-8388608,-8388608,-8388608,-8388608,364613,-8388608,-8388608,-8388608
10:45:22.006185,-8388608,-8388608,-8388608,-8388608,362245,-8388608,-8388608,-8388608
10:45:22.010397,-8388608,-8388608,-8388608,-8388608,359049,-8388608,-8388608,-8388608
10:45:22.010397,-8388608,-8388608,-8388608,-8388608,359236,-8388608,-8388608,-8388608
10:45:22.010397,-8388608,-8388608,-8388608,-8388608,363223,-8388608,-8388608,-8388608
10:45:22.021604,-8388608,-8388608,-8388608,-8388608,368418,-8388608,-8388608,-8388608
10:45:22.021604,-8388608,-8388608,-8388608,-8388608,368567,-8388608,-8388608,-8388608
10:45:22.021604,-8388608,-8388608,-8388608,-8388608,363719,-8388608,-8388608,-8388608
10:45:22.021604,-8388608,-8388608,-8388608,-8388608,363306,-8388608,-8388608,-8388608
10:45:22.038298,-8388608,-8388608,-8388608,-8388608,362048,-8388608,-8388608,-8388608
10:45:22.038298,-8388608,-8388608,-8388608,-8388608,363992,-8388608,-8388608,-8388608
10:45:22.038298,-8388608,-8388608,-8388608,-8388608,364094,-8388608,-8388608,-8388608
10:45:22.038298,-8388608,-8388608,-8388608,-8388608,357581,-8388608,-8388608,-8388608
10:45:22.054011,-8388608,-8388608,-8388608,-8388608,359908,-8388608,-8388608,-8388608
10:45:22.055319,-8388608,-8388608,-8388608,-8388608,366995,-8388608,-8388608,-8388608
10:45:22.055319,-8388608,-8388608,-8388608,-8388608,365493,-8388608,-8388608,-8388608
10:45:22.055319,-8388608,-8388608,-8388608,-8388608,361717,-8388608,-8388608,-8388608
10:45:22.070458,-8388608,-8388608,-8388608,-8388608,361339,-8388608,-8388608,-8388608
10:45:22.071570,-8388608,-8388608,-8388608,-8388608,363338,-8388608,-8388608,-8388608
10:45:22.071570,-8388608,-8388608,-8388608,-8388608,359402,-8388608,-8388608,-8388608
10:45:22.071570,-8388608,-8388608,-8388608,-8388608,361071,-8388608,-8388608,-8388608
10:45:22.087119,-8388608,-8388608,-8388608,-8388608,363798,-8388608,-8388608,-8388608
10:45:22.088517,-8388608,-8388608,-8388608,-8388608,361331,-8388608,-8388608,-8388608
10:45:22.088517,-8388608,-8388608,-8388608,-8388608,360451,-8388608,-8388608,-8388608
10:45:22.088517,-8388608,-8388608,-8388608,-8388608,363123,-8388608,-8388608,-8388608
10:45:22.088517,-8388608,-8388608,-8388608,-8388608,365038,-8388608,-8388608,-8388608
10:45:22.105716,-8388608,-8388608,-8388608,-8388608,362353,-8388608,-8388608,-8388608
10:45:22.105716,-8388608,-8388608,-8388608,-8388608,365348,-8388608,-8388608,-8388608
10:45:22.105716,-8388608,-8388608,-8388608,-8388608,365829,-8388608,-8388608,-8388608
10:45:22.105716,-8388608,-8388608,-8388608,-8388608,364129,-8388608,-8388608,-8388608
10:45:22.121502,-8388608,-8388608,-8388608,-8388608,363124,-8388608,-8388608,-8388608
10:45:22.126499,-8388608,-8388608,-8388608,-8388608,360999,-8388608,-8388608,-8388608
10:45:22.130616,-8388608,-8388608,-8388608,-8388608,363901,-8388608,-8388608,-8388608
10:45:22.131683,-8388608,-8388608,-8388608,-8388608,363660,-8388608,-8388608,-8388608
10:45:22.138901,-8388608,-8388608,-8388608,-8388608,363190,-8388608,-8388608,-8388608
10:45:22.142934,-8388608,-8388608,-8388608,-8388608,360692,-8388608,-8388608,-8388608
10:45:22.148033,-8388608,-8388608,-8388608,-8388608,362019,-8388608,-8388608,-8388608
10:45:22.151292,-8388608,-8388608,-8388608,-8388608,362484,-8388608,-8388608,-8388608
10:45:22.154619,-8388608,-8388608,-8388608,-8388608,366621,-8388608,-8388608,-8388608
10:45:22.155148,-8388608,-8388608,-8388608,-8388608,367268,-8388608,-8388608,-8388608
10:45:22.155148,-8388608,-8388608,-8388608,-8388608,361804,-8388608,-8388608,-8388608
10:45:22.155148,-8388608,-8388608,-8388608,-8388608,361826,-8388608,-8388608,-8388608
10:45:22.155148,-8388608,-8388608,-8388608,-8388608,362704,-8388608,-8388608,-8388608
10:45:22.171535,-8388608,-8388608,-8388608,-8388608,359566,-8388608,-8388608,-8388608
10:45:22.171535,-8388608,-8388608,-8388608,-8388608,361608,-8388608,-8388608,-8388608
10:45:22.171535,-8388608,-8388608,-8388608,-8388608,363898,-8388608,-8388608,-8388608
10:45:22.171535,-8388608,-8388608,-8388608,-8388608,357252,-8388608,-8388608,-8388608
10:45:22.188600,-8388608,-8388608,-8388608,-8388608,361694,-8388608,-8388608,-8388608
10:45:22.188600,-8388608,-8388608,-8388608,-8388608,364489,-8388608,-8388608,-8388608
10:45:22.188600,-8388608,-8388608,-8388608,-8388608,362668,-8388608,-8388608,-8388608
10:45:22.188600,-8388608,-8388608,-8388608,-8388608,363839,-8388608,-8388608,-8388608
10:45:22.205464,-8388608,-8388608,-8388608,-8388608,363671,-8388608,-8388608,-8388608
10:45:22.205464,-8388608,-8388608,-8388608,-8388608,364253,-8388608,-8388608,-8388608
10:45:22.205464,-8388608,-8388608,-8388608,-8388608,366512,-8388608,-8388608,-8388608
10:45:22.205464,-8388608,-8388608,-8388608,-8388608,362986,-8388608,-8388608,-8388608
10:45:22.221918,-8388608,-8388608,-8388608,-8388608,363062,-8388608,-8388608,-8388608
10:45:22.221918,-8388608,-8388608,-8388608,-8388608,362687,-8388608,-8388608,-8388608
10:45:22.221918,-8388608,-8388608,-8388608,-8388608,362635,-8388608,-8388608,-8388608
10:45:22.221918,-8388608,-8388608,-8388608,-8388608,361808,-8388608,-8388608,-8388608
10:45:22.240220,-8388608,-8388608,-8388608,-8388608,362484,-8388608,-8388608,-8388608
10:45:22.243217,-8388608,-8388608,-8388608,-8388608,363943,-8388608,-8388608,-8388608
10:45:22.245665,-8388608,-8388608,-8388608,-8388608,363641,-8388608,-8388608,-8388608
10:45:22.245665,-8388608,-8388608,-8388608,-8388608,358741,-8388608,-8388608,-8388608
10:45:22.253702,-8388608,-8388608,-8388608,-8388608,357909,-8388608,-8388608,-8388608
10:45:22.254665,-8388608,-8388608,-8388608,-8388608,360602,-8388608,-8388608,-8388608
10:45:22.254665,-8388608,-8388608,-8388608,-8388608,363430,-8388608,-8388608,-8388608
10:45:22.254665,-8388608,-8388608,-8388608,-8388608,361791,-8388608,-8388608,-8388608
10:45:22.270290,-8388608,-8388608,-8388608,-8388608,356273,-8388608,-8388608,-8388608
10:45:22.271766,-8388608,-8388608,-8388608,-8388608,354822,-8388608,-8388608,-8388608
10:45:22.271766,-8388608,-8388608,-8388608,-8388608,360081,-8388608,-8388608,-8388608
10:45:22.271766,-8388608,-8388608,-8388608,-8388608,359308,-8388608,-8388608,-8388608
10:45:22.271766,-8388608,-8388608,-8388608,-8388608,357736,-8388608,-8388608,-8388608
10:45:22.288811,-8388608,-8388608,-8388608,-8388608,362027,-8388608,-8388608,-8388608
10:45:22.288811,-8388608,-8388608,-8388608,-8388608,364973,-8388608,-8388608,-8388608
10:45:22.288811,-8388608,-8388608,-8388608,-8388608,367468,-8388608,-8388608,-8388608
10:45:22.288811,-8388608,-8388608,-8388608,-8388608,363636,-8388608,-8388608,-8388608
10:45:22.305460,-8388608,-8388608,-8388608,-8388608,360355,-8388608,-8388608,-8388608
10:45:22.305460,-8388608,-8388608,-8388608,-8388608,362309,-8388608,-8388608,-8388608
10:45:22.305460,-8388608,-8388608,-8388608,-8388608,361309,-8388608,-8388608,-8388608
10:45:22.305460,-8388608,-8388608,-8388608,-8388608,362694,-8388608,-8388608,-8388608
10:45:22.322091,-8388608,-8388608,-8388608,-8388608,362078,-8388608,-8388608,-8388608
10:45:22.322091,-8388608,-8388608,-8388608,-8388608,362818,-8388608,-8388608,-8388608
10:45:22.322091,-8388608,-8388608,-8388608,-8388608,365253,-8388608,-8388608,-8388608
10:45:22.322091,-8388608,-8388608,-8388608,-8388608,365481,-8388608,-8388608,-8388608
10:45:22.338049,-8388608,-8388608,-8388608,-8388608,363585,-8388608,-8388608,-8388608
10:45:22.342044,-8388608,-8388608,-8388608,-8388608,364032,-8388608,-8388608,-8388608
10:45:22.346075,-8388608,-8388608,-8388608,-8388608,363149,-8388608,-8388608,-8388608
10:45:22.348606,-8388608,-8388608,-8388608,-8388608,365034,-8388608,-8388608,-8388608
10:45:22.354871,-8388608,-8388608,-8388608,-8388608,362963,-8388608,-8388608,-8388608
10:45:22.358425,-8388608,-8388608,-8388608,-8388608,360865,-8388608,-8388608,-8388608
10:45:22.362332,-8388608,-8388608,-8388608,-8388608,361396,-8388608,-8388608,-8388608
10:45:22.366319,-8388608,-8388608,-8388608,-8388608,360643,-8388608,-8388608,-8388608
10:45:22.369512,-8388608,-8388608,-8388608,-8388608,365556,-8388608,-8388608,-8388608
10:45:22.371353,-8388608,-8388608,-8388608,-8388608,363386,-8388608,-8388608,-8388608
10:45:22.371353,-8388608,-8388608,-8388608,-8388608,358444,-8388608,-8388608,-8388608
10:45:22.371353,-8388608,-8388608,-8388608,-8388608,353735,-8388608,-8388608,-8388608
10:45:22.386361,-8388608,-8388608,-8388608,-8388608,343732,-8388608,-8388608,-8388608
10:45:22.388165,-8388608,-8388608,-8388608,-8388608,334517,-8388608,-8388608,-8388608
10:45:22.388165,-8388608,-8388608,-8388608,-8388608,325932,-8388608,-8388608,-8388608
10:45:22.388165,-8388608,-8388608,-8388608,-8388608,330988,-8388608,-8388608,-8388608
10:45:22.388165,-8388608,-8388608,-8388608,-8388608,349274,-8388608,-8388608,-8388608
10:45:22.405122,-8388608,-8388608,-8388608,-8388608,365021,-8388608,-8388608,-8388608
10:45:22.405122,-8388608,-8388608,-8388608,-8388608,369584,-8388608,-8388608,-8388608
10:45:22.405122,-8388608,-8388608,-8388608,-8388608,372732,-8388608,-8388608,-8388608
10:45:22.405122,-8388608,-8388608,-8388608,-8388608,372263,-8388608,-8388608,-8388608
10:45:22.421812,-8388608,-8388608,-8388608,-8388608,368228,-8388608,-8388608,-8388608
10:45:22.421812,-8388608,-8388608,-8388608,-8388608,366787,-8388608,-8388608,-8388608
10:45:22.421812,-8388608,-8388608,-8388608,-8388608,364578,-8388608,-8388608,-8388608
10:45:22.421812,-8388608,-8388608,-8388608,-8388608,362896,-8388608,-8388608,-8388608
10:45:22.437922,-8388608,-8388608,-8388608,-8388608,365235,-8388608,-8388608,-8388608
10:45:22.442091,-8388608,-8388608,-8388608,-8388608,362665,-8388608,-8388608,-8388608
10:45:22.443744,-8388608,-8388608,-8388608,-8388608,359506,-8388608,-8388608,-8388608
10:45:22.443744,-8388608,-8388608,-8388608,-8388608,360654,-8388608,-8388608,-8388608
10:45:22.453656,-8388608,-8388608,-8388608,-8388608,362496,-8388608,-8388608,-8388608
10:45:22.454660,-8388608,-8388608,-8388608,-8388608,359073,-8388608,-8388608,-8388608
10:45:22.454660,-8388608,-8388608,-8388608,-8388608,362574,-8388608,-8388608,-8388608
10:45:22.454660,-8388608,-8388608,-8388608,-8388608,362472,-8388608,-8388608,-8388608
10:45:22.470112,-8388608,-8388608,-8388608,-8388608,359572,-8388608,-8388608,-8388608
10:45:22.471642,-8388608,-8388608,-8388608,-8388608,358963,-8388608,-8388608,-8388608
10:45:22.471642,-8388608,-8388608,-8388608,-8388608,360518,-8388608,-8388608,-8388608
10:45:22.471642,-8388608,-8388608,-8388608,-8388608,364962,-8388608,-8388608,-8388608
10:45:22.471642,-8388608,-8388608,-8388608,-8388608,362798,-8388608,-8388608,-8388608
10:45:22.487157,-8388608,-8388608,-8388608,-8388608,361053,-8388608,-8388608,-8388608
10:45:22.487157,-8388608,-8388608,-8388608,-8388608,362018,-8388608,-8388608,-8388608
10:45:22.487157,-8388608,-8388608,-8388608,-8388608,359358,-8388608,-8388608,-8388608
10:45:22.487157,-8388608,-8388608,-8388608,-8388608,354775,-8388608,-8388608,-8388608
10:45:22.505110,-8388608,-8388608,-8388608,-8388608,356233,-8388608,-8388608,-8388608
10:45:22.505110,-8388608,-8388608,-8388608,-8388608,359390,-8388608,-8388608,-8388608
10:45:22.505110,-8388608,-8388608,-8388608,-8388608,359568,-8388608,-8388608,-8388608
10:45:22.505110,-8388608,-8388608,-8388608,-8388608,358529,-8388608,-8388608,-8388608
10:45:22.521240,-8388608,-8388608,-8388608,-8388608,361530,-8388608,-8388608,-8388608
10:45:22.521839,-8388608,-8388608,-8388608,-8388608,363649,-8388608,-8388608,-8388608
10:45:22.521839,-8388608,-8388608,-8388608,-8388608,358633,-8388608,-8388608,-8388608
10:45:22.521839,-8388608,-8388608,-8388608,-8388608,352015,-8388608,-8388608,-8388608
10:45:22.538362,-8388608,-8388608,-8388608,-8388608,357972,-8388608,-8388608,-8388608
10:45:22.538362,-8388608,-8388608,-8388608,-8388608,361603,-8388608,-8388608,-8388608
10:45:22.538362,-8388608,-8388608,-8388608,-8388608,357869,-8388608,-8388608,-8388608
10:45:22.538362,-8388608,-8388608,-8388608,-8388608,356384,-8388608,-8388608,-8388608
10:45:22.554580,-8388608,-8388608,-8388608,-8388608,354063,-8388608,-8388608,-8388608
10:45:22.558334,-8388608,-8388608,-8388608,-8388608,350927,-8388608,-8388608,-8388608
10:45:22.559589,-8388608,-8388608,-8388608,-8388608,357060,-8388608,-8388608,-8388608
10:45:22.563943,-8388608,-8388608,-8388608,-8388608,364558,-8388608,-8388608,-8388608
10:45:22.570196,-8388608,-8388608,-8388608,-8388608,359252,-8388608,-8388608,-8388608
10:45:22.574201,-8388608,-8388608,-8388608,-8388608,356711,-8388608,-8388608,-8388608
10:45:22.577729,-8388608,-8388608,-8388608,-8388608,354943,-8388608,-8388608,-8388608
10:45:22.581897,-8388608,-8388608,-8388608,-8388608,352347,-8388608,-8388608,-8388608
10:45:22.585828,-8388608,-8388608,-8388608,-8388608,357823,-8388608,-8388608,-8388608
10:45:22.587986,-8388608,-8388608,-8388608,-8388608,352759,-8388608,-8388608,-8388608
10:45:22.587986,-8388608,-8388608,-8388608,-8388608,351158,-8388608,-8388608,-8388608
10:45:22.587986,-8388608,-8388608,-8388608,-8388608,353396,-8388608,-8388608,-8388608
10:45:22.587986,-8388608,-8388608,-8388608,-8388608,355911,-8388608,-8388608,-8388608
10:45:22.605292,-8388608,-8388608,-8388608,-8388608,356993,-8388608,-8388608,-8388608
10:45:22.605292,-8388608,-8388608,-8388608,-8388608,352766,-8388608,-8388608,-8388608
10:45:22.605292,-8388608,-8388608,-8388608,-8388608,349009,-8388608,-8388608,-8388608
10:45:22.605292,-8388608,-8388608,-8388608,-8388608,350840,-8388608,-8388608,-8388608
10:45:22.621402,-8388608,-8388608,-8388608,-8388608,351223,-8388608,-8388608,-8388608
10:45:22.622083,-8388608,-8388608,-8388608,-8388608,347946,-8388608,-8388608,-8388608
10:45:22.622083,-8388608,-8388608,-8388608,-8388608,352465,-8388608,-8388608,-8388608
10:45:22.622083,-8388608,-8388608,-8388608,-8388608,352852,-8388608,-8388608,-8388608
10:45:22.637094,-8388608,-8388608,-8388608,-8388608,351994,-8388608,-8388608,-8388608
10:45:22.639446,-8388608,-8388608,-8388608,-8388608,350633,-8388608,-8388608,-8388608
10:45:22.639446,-8388608,-8388608,-8388608,-8388608,350255,-8388608,-8388608,-8388608
10:45:22.639446,-8388608,-8388608,-8388608,-8388608,349566,-8388608,-8388608,-8388608
10:45:22.654303,-8388608,-8388608,-8388608,-8388608,348804,-8388608,-8388608,-8388608
10:45:22.658399,-8388608,-8388608,-8388608,-8388608,353801,-8388608,-8388608,-8388608
10:45:22.658399,-8388608,-8388608,-8388608,-8388608,355817,-8388608,-8388608,-8388608
10:45:22.658399,-8388608,-8388608,-8388608,-8388608,351717,-8388608,-8388608,-8388608
10:45:22.658399,-8388608,-8388608,-8388608,-8388608,352003,-8388608,-8388608,-8388608
10:45:22.671044,-8388608,-8388608,-8388608,-8388608,356565,-8388608,-8388608,-8388608
10:45:22.671044,-8388608,-8388608,-8388608,-8388608,356673,-8388608,-8388608,-8388608
10:45:22.671044,-8388608,-8388608,-8388608,-8388608,355924,-8388608,-8388608,-8388608
10:45:22.671044,-8388608,-8388608,-8388608,-8388608,358316,-8388608,-8388608,-8388608
10:45:22.687843,-8388608,-8388608,-8388608,-8388608,356978,-8388608,-8388608,-8388608
10:45:22.687843,-8388608,-8388608,-8388608,-8388608,357967,-8388608,-8388608,-8388608
10:45:22.687843,-8388608,-8388608,-8388608,-8388608,358929,-8388608,-8388608,-8388608
10:45:22.687843,-8388608,-8388608,-8388608,-8388608,357966,-8388608,-8388608,-8388608
10:45:22.705229,-8388608,-8388608,-8388608,-8388608,357928,-8388608,-8388608,-8388608
10:45:22.705229,-8388608,-8388608,-8388608,-8388608,361734,-8388608,-8388608,-8388608
10:45:22.705229,-8388608,-8388608,-8388608,-8388608,361626,-8388608,-8388608,-8388608
10:45:22.705229,-8388608,-8388608,-8388608,-8388608,360342,-8388608,-8388608,-8388608
10:45:22.720841,-8388608,-8388608,-8388608,-8388608,359121,-8388608,-8388608,-8388608
10:45:22.720841,-8388608,-8388608,-8388608,-8388608,356912,-8388608,-8388608,-8388608
10:45:22.720841,-8388608,-8388608,-8388608,-8388608,358024,-8388608,-8388608,-8388608
10:45:22.720841,-8388608,-8388608,-8388608,-8388608,364443,-8388608,-8388608,-8388608
10:45:22.738013,-8388608,-8388608,-8388608,-8388608,367141,-8388608,-8388608,-8388608
10:45:22.738013,-8388608,-8388608,-8388608,-8388608,367213,-8388608,-8388608,-8388608
10:45:22.738013,-8388608,-8388608,-8388608,-8388608,363931,-8388608,-8388608,-8388608
10:45:22.738013,-8388608,-8388608,-8388608,-8388608,356813,-8388608,-8388608,-8388608
10:45:22.753638,-8388608,-8388608,-8388608,-8388608,356162,-8388608,-8388608,-8388608
10:45:22.757501,-8388608,-8388608,-8388608,-8388608,358650,-8388608,-8388608,-8388608
10:45:22.759717,-8388608,-8388608,-8388608,-8388608,358876,-8388608,-8388608,-8388608
10:45:22.759717,-8388608,-8388608,-8388608,-8388608,363389,-8388608,-8388608,-8388608
10:45:22.759717,-8388608,-8388608,-8388608,-8388608,364865,-8388608,-8388608,-8388608
10:45:22.772369,-8388608,-8388608,-8388608,-8388608,363742,-8388608,-8388608,-8388608
10:45:22.777454,-8388608,-8388608,-8388608,-8388608,361074,-8388608,-8388608,-8388608
10:45:22.778380,-8388608,-8388608,-8388608,-8388608,356493,-8388608,-8388608,-8388608
10:45:22.778380,-8388608,-8388608,-8388608,-8388608,358252,-8388608,-8388608,-8388608
10:45:22.789819,-8388608,-8388608,-8388608,-8388608,366921,-8388608,-8388608,-8388608
10:45:22.793880,-8388608,-8388608,-8388608,-8388608,363479,-8388608,-8388608,-8388608
10:45:22.797311,-8388608,-8388608,-8388608,-8388608,360028,-8388608,-8388608,-8388608
10:45:22.801336,-8388608,-8388608,-8388608,-8388608,362083,-8388608,-8388608,-8388608
10:45:22.805654,-8388608,-8388608,-8388608,-8388608,362158,-8388608,-8388608,-8388608
10:45:22.805654,-8388608,-8388608,-8388608,-8388608,362754,-8388608,-8388608,-8388608
10:45:22.805654,-8388608,-8388608,-8388608,-8388608,364656,-8388608,-8388608,-8388608
10:45:22.805654,-8388608,-8388608,-8388608,-8388608,361854,-8388608,-8388608,-8388608
10:45:22.821641,-8388608,-8388608,-8388608,-8388608,362439,-8388608,-8388608,-8388608
10:45:22.821641,-8388608,-8388608,-8388608,-8388608,363191,-8388608,-8388608,-8388608
10:45:22.821641,-8388608,-8388608,-8388608,-8388608,360756,-8388608,-8388608,-8388608
10:45:22.821641,-8388608,-8388608,-8388608,-8388608,360824,-8388608,-8388608,-8388608
10:45:22.837853,-8388608,-8388608,-8388608,-8388608,359715,-8388608,-8388608,-8388608
10:45:22.838555,-8388608,-8388608,-8388608,-8388608,357344,-8388608,-8388608,-8388608
10:45:22.838555,-8388608,-8388608,-8388608,-8388608,360318,-8388608,-8388608,-8388608
10:45:22.838555,-8388608,-8388608,-8388608,-8388608,361353,-8388608,-8388608,-8388608
10:45:22.853427,-8388608,-8388608,-8388608,-8388608,362852,-8388608,-8388608,-8388608
10:45:22.857521,-8388608,-8388608,-8388608,-8388608,364112,-8388608,-8388608,-8388608
10:45:22.860733,-8388608,-8388608,-8388608,-8388608,363321,-8388608,-8388608,-8388608
10:45:22.861676,-8388608,-8388608,-8388608,-8388608,362455,-8388608,-8388608,-8388608
10:45:22.861676,-8388608,-8388608,-8388608,-8388608,363576,-8388608,-8388608,-8388608
10:45:22.870865,-8388608,-8388608,-8388608,-8388608,360911,-8388608,-8388608,-8388608
10:45:22.870865,-8388608,-8388608,-8388608,-8388608,363329,-8388608,-8388608,-8388608
10:45:22.870865,-8388608,-8388608,-8388608,-8388608,363108,-8388608,-8388608,-8388608
10:45:22.870865,-8388608,-8388608,-8388608,-8388608,364718,-8388608,-8388608,-8388608
10:45:22.888057,-8388608,-8388608,-8388608,-8388608,361139,-8388608,-8388608,-8388608
10:45:22.888057,-8388608,-8388608,-8388608,-8388608,360583,-8388608,-8388608,-8388608
10:45:22.888057,-8388608,-8388608,-8388608,-8388608,361173,-8388608,-8388608,-8388608
10:45:22.888057,-8388608,-8388608,-8388608,-8388608,364988,-8388608,-8388608,-8388608
10:45:22.905743,-8388608,-8388608,-8388608,-8388608,361294,-8388608,-8388608,-8388608
10:45:22.905743,-8388608,-8388608,-8388608,-8388608,358346,-8388608,-8388608,-8388608
10:45:22.905743,-8388608,-8388608,-8388608,-8388608,361059,-8388608,-8388608,-8388608
10:45:22.905743,-8388608,-8388608,-8388608,-8388608,363043,-8388608,-8388608,-8388608
10:45:22.920771,-8388608,-8388608,-8388608,-8388608,367663,-8388608,-8388608,-8388608
10:45:22.921260,-8388608,-8388608,-8388608,-8388608,362156,-8388608,-8388608,-8388608
10:45:22.921260,-8388608,-8388608,-8388608,-8388608,358968,-8388608,-8388608,-8388608
10:45:22.921260,-8388608,-8388608,-8388608,-8388608,359912,-8388608,-8388608,-8388608
10:45:22.937877,-8388608,-8388608,-8388608,-8388608,362370,-8388608,-8388608,-8388608
10:45:22.937877,-8388608,-8388608,-8388608,-8388608,359662,-8388608,-8388608,-8388608
10:45:22.937877,-8388608,-8388608,-8388608,-8388608,361784,-8388608,-8388608,-8388608
10:45:22.937877,-8388608,-8388608,-8388608,-8388608,363159,-8388608,-8388608,-8388608
10:45:22.954267,-8388608,-8388608,-8388608,-8388608,362383,-8388608,-8388608,-8388608
10:45:22.955146,-8388608,-8388608,-8388608,-8388608,365049,-8388608,-8388608,-8388608
10:45:22.955146,-8388608,-8388608,-8388608,-8388608,365960,-8388608,-8388608,-8388608
10:45:22.955146,-8388608,-8388608,-8388608,-8388608,362852,-8388608,-8388608,-8388608
10:45:22.970840,-8388608,-8388608,-8388608,-8388608,363251,-8388608,-8388608,-8388608
10:45:22.973921,-8388608,-8388608,-8388608,-8388608,364919,-8388608,-8388608,-8388608
10:45:22.976547,-8388608,-8388608,-8388608,-8388608,362153,-8388608,-8388608,-8388608
10:45:22.980863,-8388608,-8388608,-8388608,-8388608,363343,-8388608,-8388608,-8388608
10:45:22.980863,-8388608,-8388608,-8388608,-8388608,361364,-8388608,-8388608,-8388608
10:45:22.988220,-8388608,-8388608,-8388608,-8388608,360426,-8388608,-8388608,-8388608
10:45:22.993273,-8388608,-8388608,-8388608,-8388608,359209,-8388608,-8388608,-8388608
10:45:22.997250,-8388608,-8388608,-8388608,-8388608,361626,-8388608,-8388608,-8388608
10:45:23.001356,-8388608,-8388608,-8388608,-8388608,362734,-8388608,-8388608,-8388608
10:45:23.004092,-8388608,-8388608,-8388608,-8388608,360646,-8388608,-8388608,-8388608
10:45:23.005603,-8388608,-8388608,-8388608,-8388608,356241,-8388608,-8388608,-8388608
10:45:23.005603,-8388608,-8388608,-8388608,-8388608,353903,-8388608,-8388608,-8388608
10:45:23.005603,-8388608,-8388608,-8388608,-8388608,355875,-8388608,-8388608,-8388608
10:45:23.020479,-8388608,-8388608,-8388608,-8388608,364107,-8388608,-8388608,-8388608
10:45:23.020479,-8388608,-8388608,-8388608,-8388608,363403,-8388608,-8388608,-8388608
10:45:23.020479,-8388608,-8388608,-8388608,-8388608,357202,-8388608,-8388608,-8388608
10:45:23.020479,-8388608,-8388608,-8388608,-8388608,355192,-8388608,-8388608,-8388608
10:45:23.036409,-8388608,-8388608,-8388608,-8388608,360244,-8388608,-8388608,-8388608
10:45:23.037402,-8388608,-8388608,-8388608,-8388608,361476,-8388608,-8388608,-8388608
10:45:23.037402,-8388608,-8388608,-8388608,-8388608,363706,-8388608,-8388608,-8388608
10:45:23.037402,-8388608,-8388608,-8388608,-8388608,362319,-8388608,-8388608,-8388608
10:45:23.053029,-8388608,-8388608,-8388608,-8388608,361991,-8388608,-8388608,-8388608
10:45:23.054033,-8388608,-8388608,-8388608,-8388608,360943,-8388608,-8388608,-8388608
10:45:23.054033,-8388608,-8388608,-8388608,-8388608,363048,-8388608,-8388608,-8388608
10:45:23.054033,-8388608,-8388608,-8388608,-8388608,361796,-8388608,-8388608,-8388608
10:45:23.069671,-8388608,-8388608,-8388608,-8388608,363275,-8388608,-8388608,-8388608
10:45:23.074840,-8388608,-8388608,-8388608,-8388608,363898,-8388608,-8388608,-8388608
10:45:23.075214,-8388608,-8388608,-8388608,-8388608,367160,-8388608,-8388608,-8388608
10:45:23.075214,-8388608,-8388608,-8388608,-8388608,364114,-8388608,-8388608,-8388608
10:45:23.075214,-8388608,-8388608,-8388608,-8388608,360331,-8388608,-8388608,-8388608
10:45:23.087453,-8388608,-8388608,-8388608,-8388608,355658,-8388608,-8388608,-8388608
10:45:23.087453,-8388608,-8388608,-8388608,-8388608,359065,-8388608,-8388608,-8388608
10:45:23.087453,-8388608,-8388608,-8388608,-8388608,365189,-8388608,-8388608,-8388608
10:45:23.087453,-8388608,-8388608,-8388608,-8388608,364264,-8388608,-8388608,-8388608
10:45:23.105701,-8388608,-8388608,-8388608,-8388608,367923,-8388608,-8388608,-8388608
10:45:23.105701,-8388608,-8388608,-8388608,-8388608,365064,-8388608,-8388608,-8388608
10:45:23.105701,-8388608,-8388608,-8388608,-8388608,362646,-8388608,-8388608,-8388608
10:45:23.105701,-8388608,-8388608,-8388608,-8388608,364026,-8388608,-8388608,-8388608
10:45:23.121386,-8388608,-8388608,-8388608,-8388608,365209,-8388608,-8388608,-8388608
10:45:23.121386,-8388608,-8388608,-8388608,-8388608,367778,-8388608,-8388608,-8388608
10:45:23.121386,-8388608,-8388608,-8388608,-8388608,366453,-8388608,-8388608,-8388608
10:45:23.121386,-8388608,-8388608,-8388608,-8388608,358321,-8388608,-8388608,-8388608
10:45:23.137386,-8388608,-8388608,-8388608,-8388608,351358,-8388608,-8388608,-8388608
10:45:23.138171,-8388608,-8388608,-8388608,-8388608,341545,-8388608,-8388608,-8388608
10:45:23.138171,-8388608,-8388608,-8388608,-8388608,329254,-8388608,-8388608,-8388608
10:45:23.138171,-8388608,-8388608,-8388608,-8388608,320028,-8388608,-8388608,-8388608
10:45:23.153039,-8388608,-8388608,-8388608,-8388608,327833,-8388608,-8388608,-8388608
10:45:23.155019,-8388608,-8388608,-8388608,-8388608,348018,-8388608,-8388608,-8388608
10:45:23.155019,-8388608,-8388608,-8388608,-8388608,367888,-8388608,-8388608,-8388608
10:45:23.155019,-8388608,-8388608,-8388608,-8388608,372531,-8388608,-8388608,-8388608
10:45:23.155019,-8388608,-8388608,-8388608,-8388608,371576,-8388608,-8388608,-8388608
10:45:23.171401,-8388608,-8388608,-8388608,-8388608,372514,-8388608,-8388608,-8388608
10:45:23.171401,-8388608,-8388608,-8388608,-8388608,373693,-8388608,-8388608,-8388608
10:45:23.171401,-8388608,-8388608,-8388608,-8388608,369871,-8388608,-8388608,-8388608
10:45:23.171401,-8388608,-8388608,-8388608,-8388608,364739,-8388608,-8388608,-8388608
10:45:23.188188,-8388608,-8388608,-8388608,-8388608,364313,-8388608,-8388608,-8388608
10:45:23.192319,-8388608,-8388608,-8388608,-8388608,365214,-8388608,-8388608,-8388608
10:45:23.195466,-8388608,-8388608,-8388608,-8388608,364530,-8388608,-8388608,-8388608
10:45:23.199864,-8388608,-8388608,-8388608,-8388608,362426,-8388608,-8388608,-8388608
10:45:23.204944,-8388608,-8388608,-8388608,-8388608,363293,-8388608,-8388608,-8388608
10:45:23.209681,-8388608,-8388608,-8388608,-8388608,363505,-8388608,-8388608,-8388608
10:45:23.214331,-8388608,-8388608,-8388608,-8388608,362723,-8388608,-8388608,-8388608
10:45:23.217888,-8388608,-8388608,-8388608,-8388608,360657,-8388608,-8388608,-8388608
10:45:23.220484,-8388608,-8388608,-8388608,-8388608,361198,-8388608,-8388608,-8388608
10:45:23.220484,-8388608,-8388608,-8388608,-8388608,357512,-8388608,-8388608,-8388608
10:45:23.220484,-8388608,-8388608,-8388608,-8388608,357176,-8388608,-8388608,-8388608
10:45:23.220484,-8388608,-8388608,-8388608,-8388608,359844,-8388608,-8388608,-8388608
10:45:23.236736,-8388608,-8388608,-8388608,-8388608,361698,-8388608,-8388608,-8388608
10:45:23.237615,-8388608,-8388608,-8388608,-8388608,362211,-8388608,-8388608,-8388608
10:45:23.237615,-8388608,-8388608,-8388608,-8388608,359259,-8388608,-8388608,-8388608
10:45:23.237615,-8388608,-8388608,-8388608,-8388608,355559,-8388608,-8388608,-8388608
10:45:23.252629,-8388608,-8388608,-8388608,-8388608,364763,-8388608,-8388608,-8388608
10:45:23.254359,-8388608,-8388608,-8388608,-8388608,366518,-8388608,-8388608,-8388608
10:45:23.254359,-8388608,-8388608,-8388608,-8388608,362493,-8388608,-8388608,-8388608
10:45:23.254359,-8388608,-8388608,-8388608,-8388608,361751,-8388608,-8388608,-8388608
10:45:23.254359,-8388608,-8388608,-8388608,-8388608,362553,-8388608,-8388608,-8388608
10:45:23.271308,-8388608,-8388608,-8388608,-8388608,360932,-8388608,-8388608,-8388608
10:45:23.271308,-8388608,-8388608,-8388608,-8388608,359136,-8388608,-8388608,-8388608
10:45:23.271308,-8388608,-8388608,-8388608,-8388608,359086,-8388608,-8388608,-8388608
10:45:23.271308,-8388608,-8388608,-8388608,-8388608,357719,-8388608,-8388608,-8388608
10:45:23.289449,-8388608,-8388608,-8388608,-8388608,355380,-8388608,-8388608,-8388608
10:45:23.293452,-8388608,-8388608,-8388608,-8388608,356314,-8388608,-8388608,-8388608
10:45:23.293619,-8388608,-8388608,-8388608,-8388608,358579,-8388608,-8388608,-8388608
10:45:23.293619,-8388608,-8388608,-8388608,-8388608,360808,-8388608,-8388608,-8388608
10:45:23.304103,-8388608,-8388608,-8388608,-8388608,360211,-8388608,-8388608,-8388608
10:45:23.306168,-8388608,-8388608,-8388608,-8388608,360060,-8388608,-8388608,-8388608
10:45:23.306168,-8388608,-8388608,-8388608,-8388608,361198,-8388608,-8388608,-8388608
10:45:23.306168,-8388608,-8388608,-8388608,-8388608,358445,-8388608,-8388608,-8388608
10:45:23.321546,-8388608,-8388608,-8388608,-8388608,351478,-8388608,-8388608,-8388608
10:45:23.321546,-8388608,-8388608,-8388608,-8388608,348476,-8388608,-8388608,-8388608
10:45:23.321546,-8388608,-8388608,-8388608,-8388608,359436,-8388608,-8388608,-8388608
10:45:23.321546,-8388608,-8388608,-8388608,-8388608,360066,-8388608,-8388608,-8388608
10:45:23.335955,-8388608,-8388608,-8388608,-8388608,357634,-8388608,-8388608,-8388608
10:45:23.337571,-8388608,-8388608,-8388608,-8388608,359482,-8388608,-8388608,-8388608
10:45:23.337571,-8388608,-8388608,-8388608,-8388608,361943,-8388608,-8388608,-8388608
10:45:23.337571,-8388608,-8388608,-8388608,-8388608,356394,-8388608,-8388608,-8388608
10:45:23.337571,-8388608,-8388608,-8388608,-8388608,352618,-8388608,-8388608,-8388608
10:45:23.354074,-8388608,-8388608,-8388608,-8388608,354856,-8388608,-8388608,-8388608
10:45:23.354074,-8388608,-8388608,-8388608,-8388608,352453,-8388608,-8388608,-8388608
10:45:23.354074,-8388608,-8388608,-8388608,-8388608,351159,-8388608,-8388608,-8388608
10:45:23.354074,-8388608,-8388608,-8388608,-8388608,348810,-8388608,-8388608,-8388608
