10:54:53.672472,0,0,0,0,0,0,0,0
10:54:53.689099,-8388608,-8388608,-8388608,-8388608,1139268,-8388608,-8388608,-8388608
10:54:53.690574,-8388608,-8388608,-8388608,-8388608,1153615,-8388608,-8388608,-8388608
10:54:53.690574,-8388608,-8388608,-8388608,-8388608,1230866,-8388608,-8388608,-8388608
10:54:53.690574,-8388608,-8388608,-8388608,-8388608,1269694,-8388608,-8388608,-8388608
10:54:53.690574,-8388608,-8388608,-8388608,-8388608,1224691,-8388608,-8388608,-8388608
10:54:53.707149,-8388608,-8388608,-8388608,-8388608,1139817,-8388608,-8388608,-8388608
10:54:53.707149,-8388608,-8388608,-8388608,-8388608,1151419,-8388608,-8388608,-8388608
10:54:53.707149,-8388608,-8388608,-8388608,-8388608,1232585,-8388608,-8388608,-8388608
10:54:53.707149,-8388608,-8388608,-8388608,-8388608,1270199,-8388608,-8388608,-8388608
10:54:53.725441,-8388608,-8388608,-8388608,-8388608,1209515,-8388608,-8388608,-8388608
10:54:53.728933,-8388608,-8388608,-8388608,-8388608,1135336,-8388608,-8388608,-8388608
10:54:53.728933,-8388608,-8388608,-8388608,-8388608,1158569,-8388608,-8388608,-8388608
10:54:53.728933,-8388608,-8388608,-8388608,-8388608,1227167,-8388608,-8388608,-8388608
10:54:53.739699,-8388608,-8388608,-8388608,-8388608,1264739,-8388608,-8388608,-8388608
10:54:53.739699,-8388608,-8388608,-8388608,-8388608,1208939,-8388608,-8388608,-8388608
10:54:53.739699,-8388608,-8388608,-8388608,-8388608,1132851,-8388608,-8388608,-8388608
10:54:53.739699,-8388608,-8388608,-8388608,-8388608,1143881,-8388608,-8388608,-8388608
10:54:53.756424,-8388608,-8388608,-8388608,-8388608,1226487,-8388608,-8388608,-8388608
10:54:53.756424,-8388608,-8388608,-8388608,-8388608,1273969,-8388608,-8388608,-8388608
10:54:53.756424,-8388608,-8388608,-8388608,-8388608,1216359,-8388608,-8388608,-8388608
10:54:53.756424,-8388608,-8388608,-8388608,-8388608,1141207,-8388608,-8388608,-8388608
10:54:53.772246,-8388608,-8388608,-8388608,-8388608,1148575,-8388608,-8388608,-8388608
10:54:53.773077,-8388608,-8388608,-8388608,-8388608,1220253,-8388608,-8388608,-8388608
10:54:53.773077,-8388608,-8388608,-8388608,-8388608,1261907,-8388608,-8388608,-8388608
10:54:53.773077,-8388608,-8388608,-8388608,-8388608,1220228,-8388608,-8388608,-8388608
10:54:53.773077,-8388608,-8388608,-8388608,-8388608,1140093,-8388608,-8388608,-8388608
10:54:53.790762,-8388608,-8388608,-8388608,-8388608,1150930,-8388608,-8388608,-8388608
10:54:53.790762,-8388608,-8388608,-8388608,-8388608,1225606,-8388608,-8388608,-8388608
10:54:53.790762,-8388608,-8388608,-8388608,-8388608,1269873,-8388608,-8388608,-8388608
10:54:53.790762,-8388608,-8388608,-8388608,-8388608,1220316,-8388608,-8388608,-8388608
10:54:53.806899,-8388608,-8388608,-8388608,-8388608,1144461,-8388608,-8388608,-8388608
10:54:53.806899,-8388608,-8388608,-8388608,-8388608,1160493,-8388608,-8388608,-8388608
10:54:53.806899,-8388608,-8388608,-8388608,-8388608,1238100,-8388608,-8388608,-8388608
10:54:53.806899,-8388608,-8388608,-8388608,-8388608,1265583,-8388608,-8388608,-8388608
10:54:53.824154,-8388608,-8388608,-8388608,-8388608,1221121,-8388608,-8388608,-8388608
10:54:53.826640,-8388608,-8388608,-8388608,-8388608,1141254,-8388608,-8388608,-8388608
10:54:53.826640,-8388608,-8388608,-8388608,-8388608,1158198,-8388608,-8388608,-8388608
10:54:53.826640,-8388608,-8388608,-8388608,-8388608,1230325,-8388608,-8388608,-8388608
10:54:53.839410,-8388608,-8388608,-8388608,-8388608,1275089,-8388608,-8388608,-8388608
10:54:53.839410,-8388608,-8388608,-8388608,-8388608,1222725,-8388608,-8388608,-8388608
10:54:53.839410,-8388608,-8388608,-8388608,-8388608,1140554,-8388608,-8388608,-8388608
10:54:53.839410,-8388608,-8388608,-8388608,-8388608,1153324,-8388608,-8388608,-8388608
10:54:53.856533,-8388608,-8388608,-8388608,-8388608,1227339,-8388608,-8388608,-8388608
10:54:53.856533,-8388608,-8388608,-8388608,-8388608,1273966,-8388608,-8388608,-8388608
10:54:53.856533,-8388608,-8388608,-8388608,-8388608,1223509,-8388608,-8388608,-8388608
10:54:53.856533,-8388608,-8388608,-8388608,-8388608,1140593,-8388608,-8388608,-8388608
10:54:53.856533,-8388608,-8388608,-8388608,-8388608,1146513,-8388608,-8388608,-8388608
10:54:53.873220,-8388608,-8388608,-8388608,-8388608,1225342,-8388608,-8388608,-8388608
10:54:53.873220,-8388608,-8388608,-8388608,-8388608,1277196,-8388608,-8388608,-8388608
10:54:53.873220,-8388608,-8388608,-8388608,-8388608,1226368,-8388608,-8388608,-8388608
10:54:53.888917,-8388608,-8388608,-8388608,-8388608,1146239,-8388608,-8388608,-8388608
10:54:53.890614,-8388608,-8388608,-8388608,-8388608,1156028,-8388608,-8388608,-8388608
10:54:53.890614,-8388608,-8388608,-8388608,-8388608,1225508,-8388608,-8388608,-8388608
10:54:53.890614,-8388608,-8388608,-8388608,-8388608,1276520,-8388608,-8388608,-8388608
10:54:53.890614,-8388608,-8388608,-8388608,-8388608,1220901,-8388608,-8388608,-8388608
10:54:53.908776,-8388608,-8388608,-8388608,-8388608,1142296,-8388608,-8388608,-8388608
10:54:53.912617,-8388608,-8388608,-8388608,-8388608,1152006,-8388608,-8388608,-8388608
10:54:53.912617,-8388608,-8388608,-8388608,-8388608,1227333,-8388608,-8388608,-8388608
10:54:53.912617,-8388608,-8388608,-8388608,-8388608,1265839,-8388608,-8388608,-8388608
10:54:53.923286,-8388608,-8388608,-8388608,-8388608,1221680,-8388608,-8388608,-8388608
10:54:53.927209,-8388608,-8388608,-8388608,-8388608,1150804,-8388608,-8388608,-8388608
10:54:53.928972,-8388608,-8388608,-8388608,-8388608,1155524,-8388608,-8388608,-8388608
10:54:53.928972,-8388608,-8388608,-8388608,-8388608,1220284,-8388608,-8388608,-8388608
10:54:53.941000,-8388608,-8388608,-8388608,-8388608,1268401,-8388608,-8388608,-8388608
10:54:53.945015,-8388608,-8388608,-8388608,-8388608,1227229,-8388608,-8388608,-8388608
10:54:53.948350,-8388608,-8388608,-8388608,-8388608,1146570,-8388608,-8388608,-8388608
10:54:53.952364,-8388608,-8388608,-8388608,-8388608,1151644,-8388608,-8388608,-8388608
10:54:53.954966,-8388608,-8388608,-8388608,-8388608,1228926,-8388608,-8388608,-8388608
10:54:53.956846,-8388608,-8388608,-8388608,-8388608,1268098,-8388608,-8388608,-8388608
10:54:53.956846,-8388608,-8388608,-8388608,-8388608,1221851,-8388608,-8388608,-8388608
10:54:53.956846,-8388608,-8388608,-8388608,-8388608,1143270,-8388608,-8388608,-8388608
10:54:53.972222,-8388608,-8388608,-8388608,-8388608,1151648,-8388608,-8388608,-8388608
10:54:53.973223,-8388608,-8388608,-8388608,-8388608,1221199,-8388608,-8388608,-8388608
10:54:53.973223,-8388608,-8388608,-8388608,-8388608,1268508,-8388608,-8388608,-8388608
10:54:53.973223,-8388608,-8388608,-8388608,-8388608,1225788,-8388608,-8388608,-8388608
10:54:53.988796,-8388608,-8388608,-8388608,-8388608,1143326,-8388608,-8388608,-8388608
10:54:53.990524,-8388608,-8388608,-8388608,-8388608,1149754,-8388608,-8388608,-8388608
10:54:53.990524,-8388608,-8388608,-8388608,-8388608,1227789,-8388608,-8388608,-8388608
10:54:53.990524,-8388608,-8388608,-8388608,-8388608,1278378,-8388608,-8388608,-8388608
10:54:53.990524,-8388608,-8388608,-8388608,-8388608,1225755,-8388608,-8388608,-8388608
10:54:54.006831,-8388608,-8388608,-8388608,-8388608,1140514,-8388608,-8388608,-8388608
10:54:54.006831,-8388608,-8388608,-8388608,-8388608,1153345,-8388608,-8388608,-8388608
10:54:54.006831,-8388608,-8388608,-8388608,-8388608,1220664,-8388608,-8388608,-8388608
10:54:54.006831,-8388608,-8388608,-8388608,-8388608,1270756,-8388608,-8388608,-8388608
10:54:54.023656,-8388608,-8388608,-8388608,-8388608,1226364,-8388608,-8388608,-8388608
10:54:54.023656,-8388608,-8388608,-8388608,-8388608,1150053,-8388608,-8388608,-8388608
10:54:54.023656,-8388608,-8388608,-8388608,-8388608,1154333,-8388608,-8388608,-8388608
10:54:54.023656,-8388608,-8388608,-8388608,-8388608,1219871,-8388608,-8388608,-8388608
10:54:54.039928,-8388608,-8388608,-8388608,-8388608,1270488,-8388608,-8388608,-8388608
10:54:54.043845,-8388608,-8388608,-8388608,-8388608,1226496,-8388608,-8388608,-8388608
10:54:54.047871,-8388608,-8388608,-8388608,-8388608,1145919,-8388608,-8388608,-8388608
10:54:54.049721,-8388608,-8388608,-8388608,-8388608,1149771,-8388608,-8388608,-8388608
10:54:54.056905,-8388608,-8388608,-8388608,-8388608,1224955,-8388608,-8388608,-8388608
10:54:54.056905,-8388608,-8388608,-8388608,-8388608,1276981,-8388608,-8388608,-8388608
10:54:54.056905,-8388608,-8388608,-8388608,-8388608,1225443,-8388608,-8388608,-8388608
10:54:54.056905,-8388608,-8388608,-8388608,-8388608,1146065,-8388608,-8388608,-8388608
10:54:54.056905,-8388608,-8388608,-8388608,-8388608,1156613,-8388608,-8388608,-8388608
10:54:54.073451,-8388608,-8388608,-8388608,-8388608,1216225,-8388608,-8388608,-8388608
10:54:54.073451,-8388608,-8388608,-8388608,-8388608,1267415,-8388608,-8388608,-8388608
10:54:54.073451,-8388608,-8388608,-8388608,-8388608,1226696,-8388608,-8388608,-8388608
10:54:54.073451,-8388608,-8388608,-8388608,-8388608,1147669,-8388608,-8388608,-8388608
10:54:54.090668,-8388608,-8388608,-8388608,-8388608,1148381,-8388608,-8388608,-8388608
10:54:54.090668,-8388608,-8388608,-8388608,-8388608,1217701,-8388608,-8388608,-8388608
10:54:54.090668,-8388608,-8388608,-8388608,-8388608,1270121,-8388608,-8388608,-8388608
10:54:54.090668,-8388608,-8388608,-8388608,-8388608,1227195,-8388608,-8388608,-8388608
10:54:54.107853,-8388608,-8388608,-8388608,-8388608,1139098,-8388608,-8388608,-8388608
10:54:54.107853,-8388608,-8388608,-8388608,-8388608,1140361,-8388608,-8388608,-8388608
10:54:54.107853,-8388608,-8388608,-8388608,-8388608,1214721,-8388608,-8388608,-8388608
10:54:54.107853,-8388608,-8388608,-8388608,-8388608,1267967,-8388608,-8388608,-8388608
10:54:54.123856,-8388608,-8388608,-8388608,-8388608,1224829,-8388608,-8388608,-8388608
10:54:54.127233,-8388608,-8388608,-8388608,-8388608,1146583,-8388608,-8388608,-8388608
10:54:54.130445,-8388608,-8388608,-8388608,-8388608,1156293,-8388608,-8388608,-8388608
10:54:54.130445,-8388608,-8388608,-8388608,-8388608,1221804,-8388608,-8388608,-8388608
10:54:54.139842,-8388608,-8388608,-8388608,-8388608,1266046,-8388608,-8388608,-8388608
10:54:54.142853,-8388608,-8388608,-8388608,-8388608,1225716,-8388608,-8388608,-8388608
10:54:54.148184,-8388608,-8388608,-8388608,-8388608,1145370,-8388608,-8388608,-8388608
10:54:54.153204,-8388608,-8388608,-8388608,-8388608,1150288,-8388608,-8388608,-8388608
10:54:54.156295,-8388608,-8388608,-8388608,-8388608,1216756,-8388608,-8388608,-8388608
10:54:54.156295,-8388608,-8388608,-8388608,-8388608,1278529,-8388608,-8388608,-8388608
10:54:54.156295,-8388608,-8388608,-8388608,-8388608,1236079,-8388608,-8388608,-8388608
10:54:54.156295,-8388608,-8388608,-8388608,-8388608,1145185,-8388608,-8388608,-8388608
10:54:54.171933,-8388608,-8388608,-8388608,-8388608,1151423,-8388608,-8388608,-8388608
10:54:54.173370,-8388608,-8388608,-8388608,-8388608,1217974,-8388608,-8388608,-8388608
10:54:54.173370,-8388608,-8388608,-8388608,-8388608,1273709,-8388608,-8388608,-8388608
10:54:54.173370,-8388608,-8388608,-8388608,-8388608,1227018,-8388608,-8388608,-8388608
10:54:54.173370,-8388608,-8388608,-8388608,-8388608,1151726,-8388608,-8388608,-8388608
10:54:54.190680,-8388608,-8388608,-8388608,-8388608,1155029,-8388608,-8388608,-8388608
10:54:54.190680,-8388608,-8388608,-8388608,-8388608,1216069,-8388608,-8388608,-8388608
10:54:54.190680,-8388608,-8388608,-8388608,-8388608,1274991,-8388608,-8388608,-8388608
10:54:54.190680,-8388608,-8388608,-8388608,-8388608,1235079,-8388608,-8388608,-8388608
10:54:54.207301,-8388608,-8388608,-8388608,-8388608,1148492,-8388608,-8388608,-8388608
10:54:54.207301,-8388608,-8388608,-8388608,-8388608,1136886,-8388608,-8388608,-8388608
10:54:54.207301,-8388608,-8388608,-8388608,-8388608,1195539,-8388608,-8388608,-8388608
10:54:54.207301,-8388608,-8388608,-8388608,-8388608,1240541,-8388608,-8388608,-8388608
10:54:54.223425,-8388608,-8388608,-8388608,-8388608,1191636,-8388608,-8388608,-8388608
10:54:54.223425,-8388608,-8388608,-8388608,-8388608,1098045,-8388608,-8388608,-8388608
10:54:54.223425,-8388608,-8388608,-8388608,-8388608,1099827,-8388608,-8388608,-8388608
10:54:54.223425,-8388608,-8388608,-8388608,-8388608,1188214,-8388608,-8388608,-8388608
10:54:54.239730,-8388608,-8388608,-8388608,-8388608,1261791,-8388608,-8388608,-8388608
10:54:54.240469,-8388608,-8388608,-8388608,-8388608,1225083,-8388608,-8388608,-8388608
10:54:54.240469,-8388608,-8388608,-8388608,-8388608,1149953,-8388608,-8388608,-8388608
10:54:54.240469,-8388608,-8388608,-8388608,-8388608,1144118,-8388608,-8388608,-8388608
10:54:54.255480,-8388608,-8388608,-8388608,-8388608,1207809,-8388608,-8388608,-8388608
10:54:54.258998,-8388608,-8388608,-8388608,-8388608,1268494,-8388608,-8388608,-8388608
10:54:54.263565,-8388608,-8388608,-8388608,-8388608,1227280,-8388608,-8388608,-8388608
10:54:54.263565,-8388608,-8388608,-8388608,-8388608,1150383,-8388608,-8388608,-8388608
10:54:54.271893,-8388608,-8388608,-8388608,-8388608,1149001,-8388608,-8388608,-8388608
10:54:54.272840,-8388608,-8388608,-8388608,-8388608,1214091,-8388608,-8388608,-8388608
10:54:54.272840,-8388608,-8388608,-8388608,-8388608,1267709,-8388608,-8388608,-8388608
10:54:54.272840,-8388608,-8388608,-8388608,-8388608,1228519,-8388608,-8388608,-8388608
10:54:54.272840,-8388608,-8388608,-8388608,-8388608,1148649,-8388608,-8388608,-8388608
10:54:54.290657,-8388608,-8388608,-8388608,-8388608,1148228,-8388608,-8388608,-8388608
10:54:54.290657,-8388608,-8388608,-8388608,-8388608,1216000,-8388608,-8388608,-8388608
10:54:54.290657,-8388608,-8388608,-8388608,-8388608,1274393,-8388608,-8388608,-8388608
10:54:54.290657,-8388608,-8388608,-8388608,-8388608,1240015,-8388608,-8388608,-8388608
10:54:54.306588,-8388608,-8388608,-8388608,-8388608,1157350,-8388608,-8388608,-8388608
10:54:54.306588,-8388608,-8388608,-8388608,-8388608,1137893,-8388608,-8388608,-8388608
10:54:54.306588,-8388608,-8388608,-8388608,-8388608,1208002,-8388608,-8388608,-8388608
10:54:54.306588,-8388608,-8388608,-8388608,-8388608,1270936,-8388608,-8388608,-8388608
10:54:54.323644,-8388608,-8388608,-8388608,-8388608,1232083,-8388608,-8388608,-8388608
10:54:54.323644,-8388608,-8388608,-8388608,-8388608,1150701,-8388608,-8388608,-8388608
10:54:54.323644,-8388608,-8388608,-8388608,-8388608,1144192,-8388608,-8388608,-8388608
10:54:54.323644,-8388608,-8388608,-8388608,-8388608,1210666,-8388608,-8388608,-8388608
10:54:54.339552,-8388608,-8388608,-8388608,-8388608,1268708,-8388608,-8388608,-8388608
10:54:54.340078,-8388608,-8388608,-8388608,-8388608,1232703,-8388608,-8388608,-8388608
10:54:54.346495,-8388608,-8388608,-8388608,-8388608,1155440,-8388608,-8388608,-8388608
10:54:54.346495,-8388608,-8388608,-8388608,-8388608,1150110,-8388608,-8388608,-8388608
10:54:54.346495,-8388608,-8388608,-8388608,-8388608,1218493,-8388608,-8388608,-8388608
10:54:54.359034,-8388608,-8388608,-8388608,-8388608,1270704,-8388608,-8388608,-8388608
10:54:54.363518,-8388608,-8388608,-8388608,-8388608,1233670,-8388608,-8388608,-8388608
10:54:54.367990,-8388608,-8388608,-8388608,-8388608,1153165,-8388608,-8388608,-8388608
10:54:54.371396,-8388608,-8388608,-8388608,-8388608,1139062,-8388608,-8388608,-8388608
10:54:54.372991,-8388608,-8388608,-8388608,-8388608,1209826,-8388608,-8388608,-8388608
10:54:54.372991,-8388608,-8388608,-8388608,-8388608,1269636,-8388608,-8388608,-8388608
10:54:54.372991,-8388608,-8388608,-8388608,-8388608,1234533,-8388608,-8388608,-8388608
10:54:54.372991,-8388608,-8388608,-8388608,-8388608,1154193,-8388608,-8388608,-8388608
10:54:54.391000,-8388608,-8388608,-8388608,-8388608,1143448,-8388608,-8388608,-8388608
10:54:54.391000,-8388608,-8388608,-8388608,-8388608,1205364,-8388608,-8388608,-8388608
10:54:54.391000,-8388608,-8388608,-8388608,-8388608,1268432,-8388608,-8388608,-8388608
10:54:54.405034,-8388608,-8388608,-8388608,-8388608,1231223,-8388608,-8388608,-8388608
10:54:54.405990,-8388608,-8388608,-8388608,-8388608,1147578,-8388608,-8388608,-8388608
10:54:54.405990,-8388608,-8388608,-8388608,-8388608,1140826,-8388608,-8388608,-8388608
10:54:54.405990,-8388608,-8388608,-8388608,-8388608,1207453,-8388608,-8388608,-8388608
10:54:54.405990,-8388608,-8388608,-8388608,-8388608,1265716,-8388608,-8388608,-8388608
10:54:54.422876,-8388608,-8388608,-8388608,-8388608,1238747,-8388608,-8388608,-8388608
10:54:54.422876,-8388608,-8388608,-8388608,-8388608,1152664,-8388608,-8388608,-8388608
10:54:54.422876,-8388608,-8388608,-8388608,-8388608,1138258,-8388608,-8388608,-8388608
10:54:54.422876,-8388608,-8388608,-8388608,-8388608,1205501,-8388608,-8388608,-8388608
10:54:54.438502,-8388608,-8388608,-8388608,-8388608,1271564,-8388608,-8388608,-8388608
10:54:54.440637,-8388608,-8388608,-8388608,-8388608,1226033,-8388608,-8388608,-8388608
10:54:54.440637,-8388608,-8388608,-8388608,-8388608,1143513,-8388608,-8388608,-8388608
10:54:54.440637,-8388608,-8388608,-8388608,-8388608,1135734,-8388608,-8388608,-8388608
10:54:54.440637,-8388608,-8388608,-8388608,-8388608,1203856,-8388608,-8388608,-8388608
10:54:54.456498,-8388608,-8388608,-8388608,-8388608,1270503,-8388608,-8388608,-8388608
10:54:54.456498,-8388608,-8388608,-8388608,-8388608,1226681,-8388608,-8388608,-8388608
10:54:54.456498,-8388608,-8388608,-8388608,-8388608,1146294,-8388608,-8388608,-8388608
10:54:54.456498,-8388608,-8388608,-8388608,-8388608,1140518,-8388608,-8388608,-8388608
10:54:54.476345,-8388608,-8388608,-8388608,-8388608,1206551,-8388608,-8388608,-8388608
10:54:54.477017,-8388608,-8388608,-8388608,-8388608,1267773,-8388608,-8388608,-8388608
10:54:54.477017,-8388608,-8388608,-8388608,-8388608,1235641,-8388608,-8388608,-8388608
10:54:54.477017,-8388608,-8388608,-8388608,-8388608,1159287,-8388608,-8388608,-8388608
10:54:54.491456,-8388608,-8388608,-8388608,-8388608,1151736,-8388608,-8388608,-8388608
10:54:54.491456,-8388608,-8388608,-8388608,-8388608,1216616,-8388608,-8388608,-8388608
10:54:54.491456,-8388608,-8388608,-8388608,-8388608,1268799,-8388608,-8388608,-8388608
10:54:54.491456,-8388608,-8388608,-8388608,-8388608,1232871,-8388608,-8388608,-8388608
10:54:54.506207,-8388608,-8388608,-8388608,-8388608,1152459,-8388608,-8388608,-8388608
10:54:54.506207,-8388608,-8388608,-8388608,-8388608,1148129,-8388608,-8388608,-8388608
10:54:54.506207,-8388608,-8388608,-8388608,-8388608,1211211,-8388608,-8388608,-8388608
10:54:54.506207,-8388608,-8388608,-8388608,-8388608,1270186,-8388608,-8388608,-8388608
10:54:54.522006,-8388608,-8388608,-8388608,-8388608,1238423,-8388608,-8388608,-8388608
10:54:54.523390,-8388608,-8388608,-8388608,-8388608,1157626,-8388608,-8388608,-8388608
10:54:54.523390,-8388608,-8388608,-8388608,-8388608,1148575,-8388608,-8388608,-8388608
10:54:54.523390,-8388608,-8388608,-8388608,-8388608,1214407,-8388608,-8388608,-8388608
10:54:54.539478,-8388608,-8388608,-8388608,-8388608,1275939,-8388608,-8388608,-8388608
10:54:54.540002,-8388608,-8388608,-8388608,-8388608,1241516,-8388608,-8388608,-8388608
10:54:54.540002,-8388608,-8388608,-8388608,-8388608,1160164,-8388608,-8388608,-8388608
10:54:54.540002,-8388608,-8388608,-8388608,-8388608,1150436,-8388608,-8388608,-8388608
10:54:54.555091,-8388608,-8388608,-8388608,-8388608,1209268,-8388608,-8388608,-8388608
10:54:54.559094,-8388608,-8388608,-8388608,-8388608,1276828,-8388608,-8388608,-8388608
10:54:54.561822,-8388608,-8388608,-8388608,-8388608,1242459,-8388608,-8388608,-8388608
10:54:54.561822,-8388608,-8388608,-8388608,-8388608,1162056,-8388608,-8388608,-8388608
10:54:54.572459,-8388608,-8388608,-8388608,-8388608,1152337,-8388608,-8388608,-8388608
10:54:54.575539,-8388608,-8388608,-8388608,-8388608,1218480,-8388608,-8388608,-8388608
10:54:54.578834,-8388608,-8388608,-8388608,-8388608,1275228,-8388608,-8388608,-8388608
10:54:54.582839,-8388608,-8388608,-8388608,-8388608,1242409,-8388608,-8388608,-8388608
10:54:54.586834,-8388608,-8388608,-8388608,-8388608,1165843,-8388608,-8388608,-8388608
10:54:54.591669,-8388608,-8388608,-8388608,-8388608,1155709,-8388608,-8388608,-8388608
10:54:54.591669,-8388608,-8388608,-8388608,-8388608,1211852,-8388608,-8388608,-8388608
10:54:54.591669,-8388608,-8388608,-8388608,-8388608,1277135,-8388608,-8388608,-8388608
10:54:54.591669,-8388608,-8388608,-8388608,-8388608,1244686,-8388608,-8388608,-8388608
10:54:54.606690,-8388608,-8388608,-8388608,-8388608,1165456,-8388608,-8388608,-8388608
10:54:54.606690,-8388608,-8388608,-8388608,-8388608,1149043,-8388608,-8388608,-8388608
10:54:54.606690,-8388608,-8388608,-8388608,-8388608,1215468,-8388608,-8388608,-8388608
10:54:54.606690,-8388608,-8388608,-8388608,-8388608,1285746,-8388608,-8388608,-8388608
10:54:54.623369,-8388608,-8388608,-8388608,-8388608,1242253,-8388608,-8388608,-8388608
10:54:54.623369,-8388608,-8388608,-8388608,-8388608,1161223,-8388608,-8388608,-8388608
10:54:54.623369,-8388608,-8388608,-8388608,-8388608,1147859,-8388608,-8388608,-8388608
10:54:54.623369,-8388608,-8388608,-8388608,-8388608,1212909,-8388608,-8388608,-8388608
10:54:54.638879,-8388608,-8388608,-8388608,-8388608,1277879,-8388608,-8388608,-8388608
10:54:54.640354,-8388608,-8388608,-8388608,-8388608,1247603,-8388608,-8388608,-8388608
10:54:54.640354,-8388608,-8388608,-8388608,-8388608,1169189,-8388608,-8388608,-8388608
10:54:54.640354,-8388608,-8388608,-8388608,-8388608,1148880,-8388608,-8388608,-8388608
10:54:54.655049,-8388608,-8388608,-8388608,-8388608,1213138,-8388608,-8388608,-8388608
10:54:54.656626,-8388608,-8388608,-8388608,-8388608,1279312,-8388608,-8388608,-8388608
10:54:54.656626,-8388608,-8388608,-8388608,-8388608,1254841,-8388608,-8388608,-8388608
10:54:54.656626,-8388608,-8388608,-8388608,-8388608,1172194,-8388608,-8388608,-8388608
10:54:54.656626,-8388608,-8388608,-8388608,-8388608,1147997,-8388608,-8388608,-8388608
10:54:54.673198,-8388608,-8388608,-8388608,-8388608,1211687,-8388608,-8388608,-8388608
10:54:54.673198,-8388608,-8388608,-8388608,-8388608,1277993,-8388608,-8388608,-8388608
10:54:54.673198,-8388608,-8388608,-8388608,-8388608,1248630,-8388608,-8388608,-8388608
10:54:54.673198,-8388608,-8388608,-8388608,-8388608,1166151,-8388608,-8388608,-8388608
10:54:54.690517,-8388608,-8388608,-8388608,-8388608,1155388,-8388608,-8388608,-8388608
10:54:54.694030,-8388608,-8388608,-8388608,-8388608,1217664,-8388608,-8388608,-8388608
10:54:54.695127,-8388608,-8388608,-8388608,-8388608,1278263,-8388608,-8388608,-8388608
10:54:54.695127,-8388608,-8388608,-8388608,-8388608,1250297,-8388608,-8388608,-8388608
10:54:54.706228,-8388608,-8388608,-8388608,-8388608,1168026,-8388608,-8388608,-8388608
10:54:54.706228,-8388608,-8388608,-8388608,-8388608,1154858,-8388608,-8388608,-8388608
10:54:54.706228,-8388608,-8388608,-8388608,-8388608,1219581,-8388608,-8388608,-8388608
10:54:54.706228,-8388608,-8388608,-8388608,-8388608,1279262,-8388608,-8388608,-8388608
10:54:54.722965,-8388608,-8388608,-8388608,-8388608,1252753,-8388608,-8388608,-8388608
10:54:54.723567,-8388608,-8388608,-8388608,-8388608,1174988,-8388608,-8388608,-8388608
10:54:54.723567,-8388608,-8388608,-8388608,-8388608,1156219,-8388608,-8388608,-8388608
10:54:54.723567,-8388608,-8388608,-8388608,-8388608,1211179,-8388608,-8388608,-8388608
10:54:54.738243,-8388608,-8388608,-8388608,-8388608,1279851,-8388608,-8388608,-8388608
10:54:54.739892,-8388608,-8388608,-8388608,-8388608,1252188,-8388608,-8388608,-8388608
10:54:54.739892,-8388608,-8388608,-8388608,-8388608,1172178,-8388608,-8388608,-8388608
10:54:54.739892,-8388608,-8388608,-8388608,-8388608,1155061,-8388608,-8388608,-8388608
10:54:54.756188,-8388608,-8388608,-8388608,-8388608,1216519,-8388608,-8388608,-8388608
10:54:54.756188,-8388608,-8388608,-8388608,-8388608,1281951,-8388608,-8388608,-8388608
10:54:54.756188,-8388608,-8388608,-8388608,-8388608,1252434,-8388608,-8388608,-8388608
10:54:54.756188,-8388608,-8388608,-8388608,-8388608,1174604,-8388608,-8388608,-8388608
10:54:54.756188,-8388608,-8388608,-8388608,-8388608,1156451,-8388608,-8388608,-8388608
10:54:54.775889,-8388608,-8388608,-8388608,-8388608,1215668,-8388608,-8388608,-8388608
10:54:54.778985,-8388608,-8388608,-8388608,-8388608,1280189,-8388608,-8388608,-8388608
10:54:54.778985,-8388608,-8388608,-8388608,-8388608,1255035,-8388608,-8388608,-8388608
10:54:54.778985,-8388608,-8388608,-8388608,-8388608,1177058,-8388608,-8388608,-8388608
10:54:54.790310,-8388608,-8388608,-8388608,-8388608,1153218,-8388608,-8388608,-8388608
10:54:54.797213,-8388608,-8388608,-8388608,-8388608,1213565,-8388608,-8388608,-8388608
10:54:54.801529,-8388608,-8388608,-8388608,-8388608,1283156,-8388608,-8388608,-8388608
10:54:54.804027,-8388608,-8388608,-8388608,-8388608,1252915,-8388608,-8388608,-8388608
10:54:54.806052,-8388608,-8388608,-8388608,-8388608,1175111,-8388608,-8388608,-8388608
10:54:54.806052,-8388608,-8388608,-8388608,-8388608,1156114,-8388608,-8388608,-8388608
10:54:54.806052,-8388608,-8388608,-8388608,-8388608,1220851,-8388608,-8388608,-8388608
10:54:54.806052,-8388608,-8388608,-8388608,-8388608,1285142,-8388608,-8388608,-8388608
10:54:54.822591,-8388608,-8388608,-8388608,-8388608,1256536,-8388608,-8388608,-8388608
10:54:54.822591,-8388608,-8388608,-8388608,-8388608,1173699,-8388608,-8388608,-8388608
10:54:54.822591,-8388608,-8388608,-8388608,-8388608,1158431,-8388608,-8388608,-8388608
10:54:54.822591,-8388608,-8388608,-8388608,-8388608,1213374,-8388608,-8388608,-8388608
10:54:54.822591,-8388608,-8388608,-8388608,-8388608,1289103,-8388608,-8388608,-8388608
10:54:54.839357,-8388608,-8388608,-8388608,-8388608,1259462,-8388608,-8388608,-8388608
10:54:54.839357,-8388608,-8388608,-8388608,-8388608,1171190,-8388608,-8388608,-8388608
10:54:54.839357,-8388608,-8388608,-8388608,-8388608,1145205,-8388608,-8388608,-8388608
10:54:54.854902,-8388608,-8388608,-8388608,-8388608,1213509,-8388608,-8388608,-8388608
10:54:54.856497,-8388608,-8388608,-8388608,-8388608,1288059,-8388608,-8388608,-8388608
10:54:54.856497,-8388608,-8388608,-8388608,-8388608,1259297,-8388608,-8388608,-8388608
10:54:54.856497,-8388608,-8388608,-8388608,-8388608,1175878,-8388608,-8388608,-8388608
10:54:54.856497,-8388608,-8388608,-8388608,-8388608,1147585,-8388608,-8388608,-8388608
10:54:54.873188,-8388608,-8388608,-8388608,-8388608,1206012,-8388608,-8388608,-8388608
10:54:54.873188,-8388608,-8388608,-8388608,-8388608,1281703,-8388608,-8388608,-8388608
10:54:54.873188,-8388608,-8388608,-8388608,-8388608,1258296,-8388608,-8388608,-8388608
10:54:54.873188,-8388608,-8388608,-8388608,-8388608,1176278,-8388608,-8388608,-8388608
10:54:54.889961,-8388608,-8388608,-8388608,-8388608,1153401,-8388608,-8388608,-8388608
10:54:54.892473,-8388608,-8388608,-8388608,-8388608,1216810,-8388608,-8388608,-8388608
10:54:54.892473,-8388608,-8388608,-8388608,-8388608,1282921,-8388608,-8388608,-8388608
10:54:54.892473,-8388608,-8388608,-8388608,-8388608,1259553,-8388608,-8388608,-8388608
10:54:54.906821,-8388608,-8388608,-8388608,-8388608,1183630,-8388608,-8388608,-8388608
10:54:54.911250,-8388608,-8388608,-8388608,-8388608,1157881,-8388608,-8388608,-8388608
10:54:54.911585,-8388608,-8388608,-8388608,-8388608,1213498,-8388608,-8388608,-8388608
10:54:54.911585,-8388608,-8388608,-8388608,-8388608,1283544,-8388608,-8388608,-8388608
10:54:54.921557,-8388608,-8388608,-8388608,-8388608,1264487,-8388608,-8388608,-8388608
10:54:54.922522,-8388608,-8388608,-8388608,-8388608,1180624,-8388608,-8388608,-8388608
10:54:54.922522,-8388608,-8388608,-8388608,-8388608,1151944,-8388608,-8388608,-8388608
10:54:54.922522,-8388608,-8388608,-8388608,-8388608,1210339,-8388608,-8388608,-8388608
10:54:54.939016,-8388608,-8388608,-8388608,-8388608,1283487,-8388608,-8388608,-8388608
10:54:54.939384,-8388608,-8388608,-8388608,-8388608,1261249,-8388608,-8388608,-8388608
10:54:54.939384,-8388608,-8388608,-8388608,-8388608,1180674,-8388608,-8388608,-8388608
10:54:54.939384,-8388608,-8388608,-8388608,-8388608,1154282,-8388608,-8388608,-8388608
10:54:54.956113,-8388608,-8388608,-8388608,-8388608,1216728,-8388608,-8388608,-8388608
10:54:54.956113,-8388608,-8388608,-8388608,-8388608,1294638,-8388608,-8388608,-8388608
10:54:54.956113,-8388608,-8388608,-8388608,-8388608,1267064,-8388608,-8388608,-8388608
10:54:54.956113,-8388608,-8388608,-8388608,-8388608,1183693,-8388608,-8388608,-8388608
10:54:54.971553,-8388608,-8388608,-8388608,-8388608,1147014,-8388608,-8388608,-8388608
10:54:54.973472,-8388608,-8388608,-8388608,-8388608,1186809,-8388608,-8388608,-8388608
10:54:54.973472,-8388608,-8388608,-8388608,-8388608,1246636,-8388608,-8388608,-8388608
10:54:54.973472,-8388608,-8388608,-8388608,-8388608,1215694,-8388608,-8388608,-8388608
10:54:54.988086,-8388608,-8388608,-8388608,-8388608,1131033,-8388608,-8388608,-8388608
10:54:54.989753,-8388608,-8388608,-8388608,-8388608,1111196,-8388608,-8388608,-8388608
10:54:54.994607,-8388608,-8388608,-8388608,-8388608,1191036,-8388608,-8388608,-8388608
10:54:54.996519,-8388608,-8388608,-8388608,-8388608,1283953,-8388608,-8388608,-8388608
10:54:54.996519,-8388608,-8388608,-8388608,-8388608,1267408,-8388608,-8388608,-8388608
10:54:55.005818,-8388608,-8388608,-8388608,-8388608,1179794,-8388608,-8388608,-8388608
10:54:55.010286,-8388608,-8388608,-8388608,-8388608,1159316,-8388608,-8388608,-8388608
10:54:55.015457,-8388608,-8388608,-8388608,-8388608,1209764,-8388608,-8388608,-8388608
10:54:55.019476,-8388608,-8388608,-8388608,-8388608,1282226,-8388608,-8388608,-8388608
10:54:55.022416,-8388608,-8388608,-8388608,-8388608,1264863,-8388608,-8388608,-8388608
10:54:55.022817,-8388608,-8388608,-8388608,-8388608,1178304,-8388608,-8388608,-8388608
10:54:55.022817,-8388608,-8388608,-8388608,-8388608,1150473,-8388608,-8388608,-8388608
10:54:55.022817,-8388608,-8388608,-8388608,-8388608,1215015,-8388608,-8388608,-8388608
10:54:55.038143,-8388608,-8388608,-8388608,-8388608,1286198,-8388608,-8388608,-8388608
10:54:55.039440,-8388608,-8388608,-8388608,-8388608,1261732,-8388608,-8388608,-8388608
10:54:55.039440,-8388608,-8388608,-8388608,-8388608,1183389,-8388608,-8388608,-8388608
10:54:55.039440,-8388608,-8388608,-8388608,-8388608,1160758,-8388608,-8388608,-8388608
10:54:55.054757,-8388608,-8388608,-8388608,-8388608,1210779,-8388608,-8388608,-8388608
10:54:55.056114,-8388608,-8388608,-8388608,-8388608,1279850,-8388608,-8388608,-8388608
10:54:55.056114,-8388608,-8388608,-8388608,-8388608,1265968,-8388608,-8388608,-8388608
10:54:55.056114,-8388608,-8388608,-8388608,-8388608,1187293,-8388608,-8388608,-8388608
10:54:55.071343,-8388608,-8388608,-8388608,-8388608,1151997,-8388608,-8388608,-8388608
10:54:55.072994,-8388608,-8388608,-8388608,-8388608,1210082,-8388608,-8388608,-8388608
10:54:55.072994,-8388608,-8388608,-8388608,-8388608,1281323,-8388608,-8388608,-8388608
10:54:55.072994,-8388608,-8388608,-8388608,-8388608,1266438,-8388608,-8388608,-8388608
10:54:55.072994,-8388608,-8388608,-8388608,-8388608,1184703,-8388608,-8388608,-8388608
10:54:55.089330,-8388608,-8388608,-8388608,-8388608,1154674,-8388608,-8388608,-8388608
10:54:55.092906,-8388608,-8388608,-8388608,-8388608,1211804,-8388608,-8388608,-8388608
10:54:55.092906,-8388608,-8388608,-8388608,-8388608,1284501,-8388608,-8388608,-8388608
10:54:55.092906,-8388608,-8388608,-8388608,-8388608,1265883,-8388608,-8388608,-8388608
10:54:55.106738,-8388608,-8388608,-8388608,-8388608,1185243,-8388608,-8388608,-8388608
10:54:55.110112,-8388608,-8388608,-8388608,-8388608,1150734,-8388608,-8388608,-8388608
10:54:55.111394,-8388608,-8388608,-8388608,-8388608,1209986,-8388608,-8388608,-8388608
10:54:55.111394,-8388608,-8388608,-8388608,-8388608,1291046,-8388608,-8388608,-8388608
10:54:55.122440,-8388608,-8388608,-8388608,-8388608,1269845,-8388608,-8388608,-8388608
10:54:55.122440,-8388608,-8388608,-8388608,-8388608,1182369,-8388608,-8388608,-8388608
10:54:55.122440,-8388608,-8388608,-8388608,-8388608,1152491,-8388608,-8388608,-8388608
10:54:55.122440,-8388608,-8388608,-8388608,-8388608,1207831,-8388608,-8388608,-8388608
10:54:55.138066,-8388608,-8388608,-8388608,-8388608,1280454,-8388608,-8388608,-8388608
10:54:55.139814,-8388608,-8388608,-8388608,-8388608,1263307,-8388608,-8388608,-8388608
10:54:55.139814,-8388608,-8388608,-8388608,-8388608,1184432,-8388608,-8388608,-8388608
10:54:55.139814,-8388608,-8388608,-8388608,-8388608,1150622,-8388608,-8388608,-8388608
10:54:55.154547,-8388608,-8388608,-8388608,-8388608,1204961,-8388608,-8388608,-8388608
10:54:55.156139,-8388608,-8388608,-8388608,-8388608,1281369,-8388608,-8388608,-8388608
10:54:55.156139,-8388608,-8388608,-8388608,-8388608,1267309,-8388608,-8388608,-8388608
10:54:55.156139,-8388608,-8388608,-8388608,-8388608,1186211,-8388608,-8388608,-8388608
10:54:55.156139,-8388608,-8388608,-8388608,-8388608,1146803,-8388608,-8388608,-8388608
10:54:55.172710,-8388608,-8388608,-8388608,-8388608,1203501,-8388608,-8388608,-8388608
10:54:55.172710,-8388608,-8388608,-8388608,-8388608,1285913,-8388608,-8388608,-8388608
10:54:55.172710,-8388608,-8388608,-8388608,-8388608,1261336,-8388608,-8388608,-8388608
10:54:55.172710,-8388608,-8388608,-8388608,-8388608,1183596,-8388608,-8388608,-8388608
10:54:55.189828,-8388608,-8388608,-8388608,-8388608,1152169,-8388608,-8388608,-8388608
10:54:55.192879,-8388608,-8388608,-8388608,-8388608,1198594,-8388608,-8388608,-8388608
10:54:55.192879,-8388608,-8388608,-8388608,-8388608,1276811,-8388608,-8388608,-8388608
10:54:55.192879,-8388608,-8388608,-8388608,-8388608,1259371,-8388608,-8388608,-8388608
10:54:55.206120,-8388608,-8388608,-8388608,-8388608,1178747,-8388608,-8388608,-8388608
10:54:55.209917,-8388608,-8388608,-8388608,-8388608,1144183,-8388608,-8388608,-8388608
10:54:55.212446,-8388608,-8388608,-8388608,-8388608,1203747,-8388608,-8388608,-8388608
10:54:55.212446,-8388608,-8388608,-8388608,-8388608,1278421,-8388608,-8388608,-8388608
10:54:55.221132,-8388608,-8388608,-8388608,-8388608,1262459,-8388608,-8388608,-8388608
10:54:55.226809,-8388608,-8388608,-8388608,-8388608,1178459,-8388608,-8388608,-8388608
10:54:55.230712,-8388608,-8388608,-8388608,-8388608,1145814,-8388608,-8388608,-8388608
10:54:55.234711,-8388608,-8388608,-8388608,-8388608,1201677,-8388608,-8388608,-8388608
10:54:55.237807,-8388608,-8388608,-8388608,-8388608,1278456,-8388608,-8388608,-8388608
10:54:55.238883,-8388608,-8388608,-8388608,-8388608,1266397,-8388608,-8388608,-8388608
10:54:55.238883,-8388608,-8388608,-8388608,-8388608,1188333,-8388608,-8388608,-8388608
10:54:55.238883,-8388608,-8388608,-8388608,-8388608,1152171,-8388608,-8388608,-8388608
10:54:55.238883,-8388608,-8388608,-8388608,-8388608,1205194,-8388608,-8388608,-8388608
10:54:55.255896,-8388608,-8388608,-8388608,-8388608,1280810,-8388608,-8388608,-8388608
10:54:55.255896,-8388608,-8388608,-8388608,-8388608,1266820,-8388608,-8388608,-8388608
10:54:55.255896,-8388608,-8388608,-8388608,-8388608,1188606,-8388608,-8388608,-8388608
10:54:55.255896,-8388608,-8388608,-8388608,-8388608,1157774,-8388608,-8388608,-8388608
10:54:55.272370,-8388608,-8388608,-8388608,-8388608,1201911,-8388608,-8388608,-8388608
10:54:55.272370,-8388608,-8388608,-8388608,-8388608,1275441,-8388608,-8388608,-8388608
10:54:55.272370,-8388608,-8388608,-8388608,-8388608,1262944,-8388608,-8388608,-8388608
10:54:55.287946,-8388608,-8388608,-8388608,-8388608,1193642,-8388608,-8388608,-8388608
10:54:55.289703,-8388608,-8388608,-8388608,-8388608,1151709,-8388608,-8388608,-8388608
10:54:55.293280,-8388608,-8388608,-8388608,-8388608,1202014,-8388608,-8388608,-8388608
10:54:55.293280,-8388608,-8388608,-8388608,-8388608,1278927,-8388608,-8388608,-8388608
10:54:55.293280,-8388608,-8388608,-8388608,-8388608,1263889,-8388608,-8388608,-8388608
10:54:55.306197,-8388608,-8388608,-8388608,-8388608,1185483,-8388608,-8388608,-8388608
10:54:55.306197,-8388608,-8388608,-8388608,-8388608,1149096,-8388608,-8388608,-8388608
10:54:55.306197,-8388608,-8388608,-8388608,-8388608,1198791,-8388608,-8388608,-8388608
10:54:55.306197,-8388608,-8388608,-8388608,-8388608,1278545,-8388608,-8388608,-8388608
10:54:55.321118,-8388608,-8388608,-8388608,-8388608,1270066,-8388608,-8388608,-8388608
10:54:55.325123,-8388608,-8388608,-8388608,-8388608,1189276,-8388608,-8388608,-8388608
10:54:55.328190,-8388608,-8388608,-8388608,-8388608,1147384,-8388608,-8388608,-8388608
10:54:55.328190,-8388608,-8388608,-8388608,-8388608,1197449,-8388608,-8388608,-8388608
10:54:55.337869,-8388608,-8388608,-8388608,-8388608,1276137,-8388608,-8388608,-8388608
10:54:55.338971,-8388608,-8388608,-8388608,-8388608,1268261,-8388608,-8388608,-8388608
10:54:55.338971,-8388608,-8388608,-8388608,-8388608,1186576,-8388608,-8388608,-8388608
10:54:55.338971,-8388608,-8388608,-8388608,-8388608,1147876,-8388608,-8388608,-8388608
10:54:55.354595,-8388608,-8388608,-8388608,-8388608,1200263,-8388608,-8388608,-8388608
10:54:55.356028,-8388608,-8388608,-8388608,-8388608,1278467,-8388608,-8388608,-8388608
10:54:55.356028,-8388608,-8388608,-8388608,-8388608,1266173,-8388608,-8388608,-8388608
10:54:55.356028,-8388608,-8388608,-8388608,-8388608,1185163,-8388608,-8388608,-8388608
10:54:55.371018,-8388608,-8388608,-8388608,-8388608,1154163,-8388608,-8388608,-8388608
10:54:55.372635,-8388608,-8388608,-8388608,-8388608,1198288,-8388608,-8388608,-8388608
10:54:55.372635,-8388608,-8388608,-8388608,-8388608,1277663,-8388608,-8388608,-8388608
10:54:55.372635,-8388608,-8388608,-8388608,-8388608,1270710,-8388608,-8388608,-8388608
10:54:55.372635,-8388608,-8388608,-8388608,-8388608,1194984,-8388608,-8388608,-8388608
10:54:55.389329,-8388608,-8388608,-8388608,-8388608,1145624,-8388608,-8388608,-8388608
10:54:55.393394,-8388608,-8388608,-8388608,-8388608,1196893,-8388608,-8388608,-8388608
10:54:55.393394,-8388608,-8388608,-8388608,-8388608,1280723,-8388608,-8388608,-8388608
10:54:55.393394,-8388608,-8388608,-8388608,-8388608,1269598,-8388608,-8388608,-8388608
10:54:55.405495,-8388608,-8388608,-8388608,-8388608,1187579,-8388608,-8388608,-8388608
10:54:55.409163,-8388608,-8388608,-8388608,-8388608,1147081,-8388608,-8388608,-8388608
10:54:55.411665,-8388608,-8388608,-8388608,-8388608,1202899,-8388608,-8388608,-8388608
10:54:55.411665,-8388608,-8388608,-8388608,-8388608,1281115,-8388608,-8388608,-8388608
10:54:55.421972,-8388608,-8388608,-8388608,-8388608,1266831,-8388608,-8388608,-8388608
10:54:55.426966,-8388608,-8388608,-8388608,-8388608,1188941,-8388608,-8388608,-8388608
10:54:55.430046,-8388608,-8388608,-8388608,-8388608,1151785,-8388608,-8388608,-8388608
10:54:55.432881,-8388608,-8388608,-8388608,-8388608,1200471,-8388608,-8388608,-8388608
10:54:55.437876,-8388608,-8388608,-8388608,-8388608,1274804,-8388608,-8388608,-8388608
10:54:55.438750,-8388608,-8388608,-8388608,-8388608,1266928,-8388608,-8388608,-8388608
10:54:55.438750,-8388608,-8388608,-8388608,-8388608,1195259,-8388608,-8388608,-8388608
10:54:55.438750,-8388608,-8388608,-8388608,-8388608,1153855,-8388608,-8388608,-8388608
10:54:55.454266,-8388608,-8388608,-8388608,-8388608,1204114,-8388608,-8388608,-8388608
10:54:55.455396,-8388608,-8388608,-8388608,-8388608,1277403,-8388608,-8388608,-8388608
10:54:55.455396,-8388608,-8388608,-8388608,-8388608,1267119,-8388608,-8388608,-8388608
10:54:55.455396,-8388608,-8388608,-8388608,-8388608,1192711,-8388608,-8388608,-8388608
10:54:55.455396,-8388608,-8388608,-8388608,-8388608,1153351,-8388608,-8388608,-8388608
10:54:55.472276,-8388608,-8388608,-8388608,-8388608,1200773,-8388608,-8388608,-8388608
10:54:55.472276,-8388608,-8388608,-8388608,-8388608,1280084,-8388608,-8388608,-8388608
10:54:55.472276,-8388608,-8388608,-8388608,-8388608,1274211,-8388608,-8388608,-8388608
10:54:55.472276,-8388608,-8388608,-8388608,-8388608,1193448,-8388608,-8388608,-8388608
10:54:55.488671,-8388608,-8388608,-8388608,-8388608,1154306,-8388608,-8388608,-8388608
10:54:55.493688,-8388608,-8388608,-8388608,-8388608,1201581,-8388608,-8388608,-8388608
10:54:55.493688,-8388608,-8388608,-8388608,-8388608,1278014,-8388608,-8388608,-8388608
10:54:55.493688,-8388608,-8388608,-8388608,-8388608,1276418,-8388608,-8388608,-8388608
10:54:55.505769,-8388608,-8388608,-8388608,-8388608,1196671,-8388608,-8388608,-8388608
10:54:55.506423,-8388608,-8388608,-8388608,-8388608,1156206,-8388608,-8388608,-8388608
10:54:55.506423,-8388608,-8388608,-8388608,-8388608,1203476,-8388608,-8388608,-8388608
10:54:55.506423,-8388608,-8388608,-8388608,-8388608,1280574,-8388608,-8388608,-8388608
10:54:55.522010,-8388608,-8388608,-8388608,-8388608,1272121,-8388608,-8388608,-8388608
10:54:55.526006,-8388608,-8388608,-8388608,-8388608,1190941,-8388608,-8388608,-8388608
10:54:55.527546,-8388608,-8388608,-8388608,-8388608,1151486,-8388608,-8388608,-8388608
10:54:55.527546,-8388608,-8388608,-8388608,-8388608,1201985,-8388608,-8388608,-8388608
10:54:55.527546,-8388608,-8388608,-8388608,-8388608,1286351,-8388608,-8388608,-8388608
10:54:55.538786,-8388608,-8388608,-8388608,-8388608,1272881,-8388608,-8388608,-8388608
10:54:55.538786,-8388608,-8388608,-8388608,-8388608,1190533,-8388608,-8388608,-8388608
10:54:55.538786,-8388608,-8388608,-8388608,-8388608,1153343,-8388608,-8388608,-8388608
10:54:55.554411,-8388608,-8388608,-8388608,-8388608,1203981,-8388608,-8388608,-8388608
10:54:55.556132,-8388608,-8388608,-8388608,-8388608,1280576,-8388608,-8388608,-8388608
10:54:55.556132,-8388608,-8388608,-8388608,-8388608,1273417,-8388608,-8388608,-8388608
10:54:55.556132,-8388608,-8388608,-8388608,-8388608,1199679,-8388608,-8388608,-8388608
10:54:55.556132,-8388608,-8388608,-8388608,-8388608,1153050,-8388608,-8388608,-8388608
10:54:55.573360,-8388608,-8388608,-8388608,-8388608,1197938,-8388608,-8388608,-8388608
10:54:55.573360,-8388608,-8388608,-8388608,-8388608,1278500,-8388608,-8388608,-8388608
10:54:55.573360,-8388608,-8388608,-8388608,-8388608,1276434,-8388608,-8388608,-8388608
10:54:55.573360,-8388608,-8388608,-8388608,-8388608,1197418,-8388608,-8388608,-8388608
10:54:55.589526,-8388608,-8388608,-8388608,-8388608,1154311,-8388608,-8388608,-8388608
10:54:55.594063,-8388608,-8388608,-8388608,-8388608,1201782,-8388608,-8388608,-8388608
10:54:55.594063,-8388608,-8388608,-8388608,-8388608,1283049,-8388608,-8388608,-8388608
10:54:55.594063,-8388608,-8388608,-8388608,-8388608,1277787,-8388608,-8388608,-8388608
10:54:55.604572,-8388608,-8388608,-8388608,-8388608,1194829,-8388608,-8388608,-8388608
10:54:55.606573,-8388608,-8388608,-8388608,-8388608,1148601,-8388608,-8388608,-8388608
10:54:55.606573,-8388608,-8388608,-8388608,-8388608,1199067,-8388608,-8388608,-8388608
10:54:55.606573,-8388608,-8388608,-8388608,-8388608,1280766,-8388608,-8388608,-8388608
10:54:55.606573,-8388608,-8388608,-8388608,-8388608,1273296,-8388608,-8388608,-8388608
10:54:55.625011,-8388608,-8388608,-8388608,-8388608,1198354,-8388608,-8388608,-8388608
10:54:55.629376,-8388608,-8388608,-8388608,-8388608,1154060,-8388608,-8388608,-8388608
10:54:55.630644,-8388608,-8388608,-8388608,-8388608,1209524,-8388608,-8388608,-8388608
10:54:55.630644,-8388608,-8388608,-8388608,-8388608,1285632,-8388608,-8388608,-8388608
10:54:55.642184,-8388608,-8388608,-8388608,-8388608,1280304,-8388608,-8388608,-8388608
10:54:55.645286,-8388608,-8388608,-8388608,-8388608,1201660,-8388608,-8388608,-8388608
10:54:55.649748,-8388608,-8388608,-8388608,-8388608,1152698,-8388608,-8388608,-8388608
10:54:55.653550,-8388608,-8388608,-8388608,-8388608,1201364,-8388608,-8388608,-8388608
10:54:55.655215,-8388608,-8388608,-8388608,-8388608,1284111,-8388608,-8388608,-8388608
10:54:55.655215,-8388608,-8388608,-8388608,-8388608,1275552,-8388608,-8388608,-8388608
10:54:55.655215,-8388608,-8388608,-8388608,-8388608,1204123,-8388608,-8388608,-8388608
10:54:55.655215,-8388608,-8388608,-8388608,-8388608,1161043,-8388608,-8388608,-8388608
10:54:55.671891,-8388608,-8388608,-8388608,-8388608,1206957,-8388608,-8388608,-8388608
10:54:55.671891,-8388608,-8388608,-8388608,-8388608,1284742,-8388608,-8388608,-8388608
10:54:55.671891,-8388608,-8388608,-8388608,-8388608,1282839,-8388608,-8388608,-8388608
10:54:55.671891,-8388608,-8388608,-8388608,-8388608,1216879,-8388608,-8388608,-8388608
10:54:55.688580,-8388608,-8388608,-8388608,-8388608,1163831,-8388608,-8388608,-8388608
10:54:55.694205,-8388608,-8388608,-8388608,-8388608,1207636,-8388608,-8388608,-8388608
10:54:55.694205,-8388608,-8388608,-8388608,-8388608,1278999,-8388608,-8388608,-8388608
10:54:55.694205,-8388608,-8388608,-8388608,-8388608,1263652,-8388608,-8388608,-8388608
10:54:55.705305,-8388608,-8388608,-8388608,-8388608,1168794,-8388608,-8388608,-8388608
10:54:55.705305,-8388608,-8388608,-8388608,-8388608,1110088,-8388608,-8388608,-8388608
10:54:55.705305,-8388608,-8388608,-8388608,-8388608,1147274,-8388608,-8388608,-8388608
10:54:55.705305,-8388608,-8388608,-8388608,-8388608,1229628,-8388608,-8388608,-8388608
10:54:55.720684,-8388608,-8388608,-8388608,-8388608,1245758,-8388608,-8388608,-8388608
10:54:55.721999,-8388608,-8388608,-8388608,-8388608,1193379,-8388608,-8388608,-8388608
10:54:55.721999,-8388608,-8388608,-8388608,-8388608,1152221,-8388608,-8388608,-8388608
10:54:55.721999,-8388608,-8388608,-8388608,-8388608,1208037,-8388608,-8388608,-8388608
10:54:55.721999,-8388608,-8388608,-8388608,-8388608,1289202,-8388608,-8388608,-8388608
10:54:55.740579,-8388608,-8388608,-8388608,-8388608,1281651,-8388608,-8388608,-8388608
10:54:55.744858,-8388608,-8388608,-8388608,-8388608,1209919,-8388608,-8388608,-8388608
10:54:55.744858,-8388608,-8388608,-8388608,-8388608,1163129,-8388608,-8388608,-8388608
10:54:55.754076,-8388608,-8388608,-8388608,-8388608,1206099,-8388608,-8388608,-8388608
10:54:55.755064,-8388608,-8388608,-8388608,-8388608,1284783,-8388608,-8388608,-8388608
10:54:55.755064,-8388608,-8388608,-8388608,-8388608,1280994,-8388608,-8388608,-8388608
10:54:55.755064,-8388608,-8388608,-8388608,-8388608,1209635,-8388608,-8388608,-8388608
10:54:55.755064,-8388608,-8388608,-8388608,-8388608,1160438,-8388608,-8388608,-8388608
10:54:55.772046,-8388608,-8388608,-8388608,-8388608,1205704,-8388608,-8388608,-8388608
10:54:55.772046,-8388608,-8388608,-8388608,-8388608,1281443,-8388608,-8388608,-8388608
10:54:55.772046,-8388608,-8388608,-8388608,-8388608,1282884,-8388608,-8388608,-8388608
10:54:55.772046,-8388608,-8388608,-8388608,-8388608,1206926,-8388608,-8388608,-8388608
10:54:55.788464,-8388608,-8388608,-8388608,-8388608,1156106,-8388608,-8388608,-8388608
10:54:55.788908,-8388608,-8388608,-8388608,-8388608,1203437,-8388608,-8388608,-8388608
10:54:55.794524,-8388608,-8388608,-8388608,-8388608,1283838,-8388608,-8388608,-8388608
10:54:55.794524,-8388608,-8388608,-8388608,-8388608,1282311,-8388608,-8388608,-8388608
10:54:55.805669,-8388608,-8388608,-8388608,-8388608,1207206,-8388608,-8388608,-8388608
10:54:55.805669,-8388608,-8388608,-8388608,-8388608,1162498,-8388608,-8388608,-8388608
10:54:55.805669,-8388608,-8388608,-8388608,-8388608,1205156,-8388608,-8388608,-8388608
10:54:55.805669,-8388608,-8388608,-8388608,-8388608,1285788,-8388608,-8388608,-8388608
10:54:55.821793,-8388608,-8388608,-8388608,-8388608,1289121,-8388608,-8388608,-8388608
10:54:55.822281,-8388608,-8388608,-8388608,-8388608,1207378,-8388608,-8388608,-8388608
10:54:55.822281,-8388608,-8388608,-8388608,-8388608,1161921,-8388608,-8388608,-8388608
10:54:55.822281,-8388608,-8388608,-8388608,-8388608,1205886,-8388608,-8388608,-8388608
10:54:55.837435,-8388608,-8388608,-8388608,-8388608,1289488,-8388608,-8388608,-8388608
10:54:55.840443,-8388608,-8388608,-8388608,-8388608,1284743,-8388608,-8388608,-8388608
10:54:55.843460,-8388608,-8388608,-8388608,-8388608,1207231,-8388608,-8388608,-8388608
10:54:55.847436,-8388608,-8388608,-8388608,-8388608,1159804,-8388608,-8388608,-8388608
10:54:55.854081,-8388608,-8388608,-8388608,-8388608,1201161,-8388608,-8388608,-8388608
10:54:55.857418,-8388608,-8388608,-8388608,-8388608,1279739,-8388608,-8388608,-8388608
10:54:55.861685,-8388608,-8388608,-8388608,-8388608,1285332,-8388608,-8388608,-8388608
10:54:55.865964,-8388608,-8388608,-8388608,-8388608,1212579,-8388608,-8388608,-8388608
10:54:55.868741,-8388608,-8388608,-8388608,-8388608,1156278,-8388608,-8388608,-8388608
10:54:55.871640,-8388608,-8388608,-8388608,-8388608,1197298,-8388608,-8388608,-8388608
10:54:55.871640,-8388608,-8388608,-8388608,-8388608,1279273,-8388608,-8388608,-8388608
10:54:55.871640,-8388608,-8388608,-8388608,-8388608,1280136,-8388608,-8388608,-8388608
10:54:55.871640,-8388608,-8388608,-8388608,-8388608,1208875,-8388608,-8388608,-8388608
10:54:55.888163,-8388608,-8388608,-8388608,-8388608,1157493,-8388608,-8388608,-8388608
10:54:55.888163,-8388608,-8388608,-8388608,-8388608,1201963,-8388608,-8388608,-8388608
10:54:55.894695,-8388608,-8388608,-8388608,-8388608,1280144,-8388608,-8388608,-8388608
10:54:55.894695,-8388608,-8388608,-8388608,-8388608,1280210,-8388608,-8388608,-8388608
10:54:55.903830,-8388608,-8388608,-8388608,-8388608,1207291,-8388608,-8388608,-8388608
10:54:55.905397,-8388608,-8388608,-8388608,-8388608,1153164,-8388608,-8388608,-8388608
10:54:55.905397,-8388608,-8388608,-8388608,-8388608,1191983,-8388608,-8388608,-8388608
10:54:55.905397,-8388608,-8388608,-8388608,-8388608,1273703,-8388608,-8388608,-8388608
10:54:55.920550,-8388608,-8388608,-8388608,-8388608,1279135,-8388608,-8388608,-8388608
10:54:55.921718,-8388608,-8388608,-8388608,-8388608,1209058,-8388608,-8388608,-8388608
10:54:55.921718,-8388608,-8388608,-8388608,-8388608,1156513,-8388608,-8388608,-8388608
10:54:55.921718,-8388608,-8388608,-8388608,-8388608,1199599,-8388608,-8388608,-8388608
10:54:55.937131,-8388608,-8388608,-8388608,-8388608,1276232,-8388608,-8388608,-8388608
10:54:55.941180,-8388608,-8388608,-8388608,-8388608,1275431,-8388608,-8388608,-8388608
10:54:55.942015,-8388608,-8388608,-8388608,-8388608,1202858,-8388608,-8388608,-8388608
10:54:55.942015,-8388608,-8388608,-8388608,-8388608,1152934,-8388608,-8388608,-8388608
10:54:55.942015,-8388608,-8388608,-8388608,-8388608,1198706,-8388608,-8388608,-8388608
10:54:55.954909,-8388608,-8388608,-8388608,-8388608,1278899,-8388608,-8388608,-8388608
10:54:55.954909,-8388608,-8388608,-8388608,-8388608,1280914,-8388608,-8388608,-8388608
10:54:55.954909,-8388608,-8388608,-8388608,-8388608,1212182,-8388608,-8388608,-8388608
10:54:55.969963,-8388608,-8388608,-8388608,-8388608,1159666,-8388608,-8388608,-8388608
10:54:55.971630,-8388608,-8388608,-8388608,-8388608,1198616,-8388608,-8388608,-8388608
10:54:55.971630,-8388608,-8388608,-8388608,-8388608,1278279,-8388608,-8388608,-8388608
10:54:55.971630,-8388608,-8388608,-8388608,-8388608,1283849,-8388608,-8388608,-8388608
10:54:55.971630,-8388608,-8388608,-8388608,-8388608,1216185,-8388608,-8388608,-8388608
10:54:55.988519,-8388608,-8388608,-8388608,-8388608,1161766,-8388608,-8388608,-8388608
10:54:55.988519,-8388608,-8388608,-8388608,-8388608,1202183,-8388608,-8388608,-8388608
10:54:55.995032,-8388608,-8388608,-8388608,-8388608,1283961,-8388608,-8388608,-8388608
10:54:55.995032,-8388608,-8388608,-8388608,-8388608,1288868,-8388608,-8388608,-8388608
10:54:56.003999,-8388608,-8388608,-8388608,-8388608,1218259,-8388608,-8388608,-8388608
10:54:56.005465,-8388608,-8388608,-8388608,-8388608,1162383,-8388608,-8388608,-8388608
10:54:56.005465,-8388608,-8388608,-8388608,-8388608,1201739,-8388608,-8388608,-8388608
10:54:56.005465,-8388608,-8388608,-8388608,-8388608,1285409,-8388608,-8388608,-8388608
10:54:56.020509,-8388608,-8388608,-8388608,-8388608,1288174,-8388608,-8388608,-8388608
10:54:56.021990,-8388608,-8388608,-8388608,-8388608,1218893,-8388608,-8388608,-8388608
10:54:56.021990,-8388608,-8388608,-8388608,-8388608,1167638,-8388608,-8388608,-8388608
10:54:56.021990,-8388608,-8388608,-8388608,-8388608,1204860,-8388608,-8388608,-8388608
10:54:56.038052,-8388608,-8388608,-8388608,-8388608,1284498,-8388608,-8388608,-8388608
10:54:56.038934,-8388608,-8388608,-8388608,-8388608,1289917,-8388608,-8388608,-8388608
10:54:56.038934,-8388608,-8388608,-8388608,-8388608,1218783,-8388608,-8388608,-8388608
10:54:56.038934,-8388608,-8388608,-8388608,-8388608,1167209,-8388608,-8388608,-8388608
10:54:56.038934,-8388608,-8388608,-8388608,-8388608,1207453,-8388608,-8388608,-8388608
10:54:56.055926,-8388608,-8388608,-8388608,-8388608,1284079,-8388608,-8388608,-8388608
10:54:56.060305,-8388608,-8388608,-8388608,-8388608,1288136,-8388608,-8388608,-8388608
10:54:56.064084,-8388608,-8388608,-8388608,-8388608,1222607,-8388608,-8388608,-8388608
10:54:56.064084,-8388608,-8388608,-8388608,-8388608,1167984,-8388608,-8388608,-8388608
10:54:56.072626,-8388608,-8388608,-8388608,-8388608,1207907,-8388608,-8388608,-8388608
10:54:56.078259,-8388608,-8388608,-8388608,-8388608,1284366,-8388608,-8388608,-8388608
10:54:56.081998,-8388608,-8388608,-8388608,-8388608,1288527,-8388608,-8388608,-8388608
10:54:56.084971,-8388608,-8388608,-8388608,-8388608,1219411,-8388608,-8388608,-8388608
10:54:56.088039,-8388608,-8388608,-8388608,-8388608,1164001,-8388608,-8388608,-8388608
10:54:56.088039,-8388608,-8388608,-8388608,-8388608,1204914,-8388608,-8388608,-8388608
10:54:56.095047,-8388608,-8388608,-8388608,-8388608,1285654,-8388608,-8388608,-8388608
10:54:56.095047,-8388608,-8388608,-8388608,-8388608,1290959,-8388608,-8388608,-8388608
10:54:56.105170,-8388608,-8388608,-8388608,-8388608,1219646,-8388608,-8388608,-8388608
10:54:56.105170,-8388608,-8388608,-8388608,-8388608,1168704,-8388608,-8388608,-8388608
10:54:56.105170,-8388608,-8388608,-8388608,-8388608,1205911,-8388608,-8388608,-8388608
10:54:56.105170,-8388608,-8388608,-8388608,-8388608,1282288,-8388608,-8388608,-8388608
10:54:56.120793,-8388608,-8388608,-8388608,-8388608,1293493,-8388608,-8388608,-8388608
10:54:56.122019,-8388608,-8388608,-8388608,-8388608,1220678,-8388608,-8388608,-8388608
10:54:56.122019,-8388608,-8388608,-8388608,-8388608,1164096,-8388608,-8388608,-8388608
10:54:56.122019,-8388608,-8388608,-8388608,-8388608,1205576,-8388608,-8388608,-8388608
10:54:56.122019,-8388608,-8388608,-8388608,-8388608,1287061,-8388608,-8388608,-8388608
10:54:56.138723,-8388608,-8388608,-8388608,-8388608,1294337,-8388608,-8388608,-8388608
10:54:56.138723,-8388608,-8388608,-8388608,-8388608,1226210,-8388608,-8388608,-8388608
10:54:56.138723,-8388608,-8388608,-8388608,-8388608,1165948,-8388608,-8388608,-8388608
10:54:56.138723,-8388608,-8388608,-8388608,-8388608,1205332,-8388608,-8388608,-8388608
10:54:56.156844,-8388608,-8388608,-8388608,-8388608,1281089,-8388608,-8388608,-8388608
10:54:56.159713,-8388608,-8388608,-8388608,-8388608,1292243,-8388608,-8388608,-8388608
10:54:56.159713,-8388608,-8388608,-8388608,-8388608,1229632,-8388608,-8388608,-8388608
10:54:56.159713,-8388608,-8388608,-8388608,-8388608,1165999,-8388608,-8388608,-8388608
10:54:56.171942,-8388608,-8388608,-8388608,-8388608,1200911,-8388608,-8388608,-8388608
10:54:56.171942,-8388608,-8388608,-8388608,-8388608,1283066,-8388608,-8388608,-8388608
10:54:56.171942,-8388608,-8388608,-8388608,-8388608,1295598,-8388608,-8388608,-8388608
10:54:56.171942,-8388608,-8388608,-8388608,-8388608,1220693,-8388608,-8388608,-8388608
10:54:56.188058,-8388608,-8388608,-8388608,-8388608,1169192,-8388608,-8388608,-8388608
10:54:56.188505,-8388608,-8388608,-8388608,-8388608,1205794,-8388608,-8388608,-8388608
10:54:56.195083,-8388608,-8388608,-8388608,-8388608,1285514,-8388608,-8388608,-8388608
10:54:56.195083,-8388608,-8388608,-8388608,-8388608,1294049,-8388608,-8388608,-8388608
10:54:56.204100,-8388608,-8388608,-8388608,-8388608,1223853,-8388608,-8388608,-8388608
10:54:56.206172,-8388608,-8388608,-8388608,-8388608,1166785,-8388608,-8388608,-8388608
10:54:56.206172,-8388608,-8388608,-8388608,-8388608,1203522,-8388608,-8388608,-8388608
10:54:56.206172,-8388608,-8388608,-8388608,-8388608,1284288,-8388608,-8388608,-8388608
10:54:56.206172,-8388608,-8388608,-8388608,-8388608,1295017,-8388608,-8388608,-8388608
10:54:56.222768,-8388608,-8388608,-8388608,-8388608,1232366,-8388608,-8388608,-8388608
10:54:56.222768,-8388608,-8388608,-8388608,-8388608,1171653,-8388608,-8388608,-8388608
10:54:56.222768,-8388608,-8388608,-8388608,-8388608,1200585,-8388608,-8388608,-8388608
10:54:56.222768,-8388608,-8388608,-8388608,-8388608,1283660,-8388608,-8388608,-8388608
10:54:56.238843,-8388608,-8388608,-8388608,-8388608,1302973,-8388608,-8388608,-8388608
10:54:56.238843,-8388608,-8388608,-8388608,-8388608,1230334,-8388608,-8388608,-8388608
10:54:56.238843,-8388608,-8388608,-8388608,-8388608,1171202,-8388608,-8388608,-8388608
10:54:56.238843,-8388608,-8388608,-8388608,-8388608,1206563,-8388608,-8388608,-8388608
10:54:56.255683,-8388608,-8388608,-8388608,-8388608,1284837,-8388608,-8388608,-8388608
10:54:56.260689,-8388608,-8388608,-8388608,-8388608,1286493,-8388608,-8388608,-8388608
10:54:56.261412,-8388608,-8388608,-8388608,-8388608,1227392,-8388608,-8388608,-8388608
10:54:56.261412,-8388608,-8388608,-8388608,-8388608,1166978,-8388608,-8388608,-8388608
10:54:56.271563,-8388608,-8388608,-8388608,-8388608,1200118,-8388608,-8388608,-8388608
10:54:56.275276,-8388608,-8388608,-8388608,-8388608,1279189,-8388608,-8388608,-8388608
10:54:56.278230,-8388608,-8388608,-8388608,-8388608,1294096,-8388608,-8388608,-8388608
10:54:56.278230,-8388608,-8388608,-8388608,-8388608,1227449,-8388608,-8388608,-8388608
10:54:56.287527,-8388608,-8388608,-8388608,-8388608,1167046,-8388608,-8388608,-8388608
10:54:56.293272,-8388608,-8388608,-8388608,-8388608,1199151,-8388608,-8388608,-8388608
10:54:56.297425,-8388608,-8388608,-8388608,-8388608,1277902,-8388608,-8388608,-8388608
10:54:56.300145,-8388608,-8388608,-8388608,-8388608,1292619,-8388608,-8388608,-8388608
10:54:56.304057,-8388608,-8388608,-8388608,-8388608,1227929,-8388608,-8388608,-8388608
10:54:56.304502,-8388608,-8388608,-8388608,-8388608,1163800,-8388608,-8388608,-8388608
10:54:56.304502,-8388608,-8388608,-8388608,-8388608,1202796,-8388608,-8388608,-8388608
10:54:56.304502,-8388608,-8388608,-8388608,-8388608,1290263,-8388608,-8388608,-8388608
10:54:56.320289,-8388608,-8388608,-8388608,-8388608,1298097,-8388608,-8388608,-8388608
10:54:56.321526,-8388608,-8388608,-8388608,-8388608,1232322,-8388608,-8388608,-8388608
10:54:56.321526,-8388608,-8388608,-8388608,-8388608,1165426,-8388608,-8388608,-8388608
10:54:56.321526,-8388608,-8388608,-8388608,-8388608,1203929,-8388608,-8388608,-8388608
10:54:56.321526,-8388608,-8388608,-8388608,-8388608,1291495,-8388608,-8388608,-8388608
10:54:56.338201,-8388608,-8388608,-8388608,-8388608,1298599,-8388608,-8388608,-8388608
10:54:56.338201,-8388608,-8388608,-8388608,-8388608,1225718,-8388608,-8388608,-8388608
10:54:56.338201,-8388608,-8388608,-8388608,-8388608,1169924,-8388608,-8388608,-8388608
10:54:56.338201,-8388608,-8388608,-8388608,-8388608,1204708,-8388608,-8388608,-8388608
10:54:56.354915,-8388608,-8388608,-8388608,-8388608,1280004,-8388608,-8388608,-8388608
10:54:56.354915,-8388608,-8388608,-8388608,-8388608,1295940,-8388608,-8388608,-8388608
10:54:56.354915,-8388608,-8388608,-8388608,-8388608,1233903,-8388608,-8388608,-8388608
10:54:56.354915,-8388608,-8388608,-8388608,-8388608,1175386,-8388608,-8388608,-8388608
10:54:56.372279,-8388608,-8388608,-8388608,-8388608,1211847,-8388608,-8388608,-8388608
10:54:56.377129,-8388608,-8388608,-8388608,-8388608,1292684,-8388608,-8388608,-8388608
10:54:56.377444,-8388608,-8388608,-8388608,-8388608,1303428,-8388608,-8388608,-8388608
10:54:56.377444,-8388608,-8388608,-8388608,-8388608,1236199,-8388608,-8388608,-8388608
10:54:56.387829,-8388608,-8388608,-8388608,-8388608,1164706,-8388608,-8388608,-8388608
10:54:56.387829,-8388608,-8388608,-8388608,-8388608,1182120,-8388608,-8388608,-8388608
10:54:56.395336,-8388608,-8388608,-8388608,-8388608,1252486,-8388608,-8388608,-8388608
10:54:56.395336,-8388608,-8388608,-8388608,-8388608,1253645,-8388608,-8388608,-8388608
10:54:56.403843,-8388608,-8388608,-8388608,-8388608,1174333,-8388608,-8388608,-8388608
10:54:56.405012,-8388608,-8388608,-8388608,-8388608,1123703,-8388608,-8388608,-8388608
10:54:56.405012,-8388608,-8388608,-8388608,-8388608,1181509,-8388608,-8388608,-8388608
10:54:56.405012,-8388608,-8388608,-8388608,-8388608,1279506,-8388608,-8388608,-8388608
10:54:56.421092,-8388608,-8388608,-8388608,-8388608,1303846,-8388608,-8388608,-8388608
10:54:56.421650,-8388608,-8388608,-8388608,-8388608,1241979,-8388608,-8388608,-8388608
10:54:56.421650,-8388608,-8388608,-8388608,-8388608,1175126,-8388608,-8388608,-8388608
10:54:56.421650,-8388608,-8388608,-8388608,-8388608,1203768,-8388608,-8388608,-8388608
10:54:56.421650,-8388608,-8388608,-8388608,-8388608,1280873,-8388608,-8388608,-8388608
10:54:56.438576,-8388608,-8388608,-8388608,-8388608,1297484,-8388608,-8388608,-8388608
10:54:56.438576,-8388608,-8388608,-8388608,-8388608,1240395,-8388608,-8388608,-8388608
10:54:56.438576,-8388608,-8388608,-8388608,-8388608,1177152,-8388608,-8388608,-8388608
10:54:56.438576,-8388608,-8388608,-8388608,-8388608,1200620,-8388608,-8388608,-8388608
10:54:56.455042,-8388608,-8388608,-8388608,-8388608,1292543,-8388608,-8388608,-8388608
10:54:56.455042,-8388608,-8388608,-8388608,-8388608,1305290,-8388608,-8388608,-8388608
10:54:56.455042,-8388608,-8388608,-8388608,-8388608,1236759,-8388608,-8388608,-8388608
10:54:56.455042,-8388608,-8388608,-8388608,-8388608,1173424,-8388608,-8388608,-8388608
10:54:56.471965,-8388608,-8388608,-8388608,-8388608,1206846,-8388608,-8388608,-8388608
10:54:56.475812,-8388608,-8388608,-8388608,-8388608,1282241,-8388608,-8388608,-8388608
10:54:56.475812,-8388608,-8388608,-8388608,-8388608,1296701,-8388608,-8388608,-8388608
10:54:56.475812,-8388608,-8388608,-8388608,-8388608,1236661,-8388608,-8388608,-8388608
10:54:56.486558,-8388608,-8388608,-8388608,-8388608,1170691,-8388608,-8388608,-8388608
10:54:56.491325,-8388608,-8388608,-8388608,-8388608,1203633,-8388608,-8388608,-8388608
10:54:56.495520,-8388608,-8388608,-8388608,-8388608,1291212,-8388608,-8388608,-8388608
10:54:56.495520,-8388608,-8388608,-8388608,-8388608,1299879,-8388608,-8388608,-8388608
10:54:56.503434,-8388608,-8388608,-8388608,-8388608,1235008,-8388608,-8388608,-8388608
10:54:56.507815,-8388608,-8388608,-8388608,-8388608,1176566,-8388608,-8388608,-8388608
10:54:56.512512,-8388608,-8388608,-8388608,-8388608,1211189,-8388608,-8388608,-8388608
10:54:56.515464,-8388608,-8388608,-8388608,-8388608,1283963,-8388608,-8388608,-8388608
10:54:56.519392,-8388608,-8388608,-8388608,-8388608,1300978,-8388608,-8388608,-8388608
10:54:56.520993,-8388608,-8388608,-8388608,-8388608,1242581,-8388608,-8388608,-8388608
10:54:56.520993,-8388608,-8388608,-8388608,-8388608,1175791,-8388608,-8388608,-8388608
10:54:56.520993,-8388608,-8388608,-8388608,-8388608,1209395,-8388608,-8388608,-8388608
10:54:56.536619,-8388608,-8388608,-8388608,-8388608,1287730,-8388608,-8388608,-8388608
10:54:56.538038,-8388608,-8388608,-8388608,-8388608,1298167,-8388608,-8388608,-8388608
10:54:56.538038,-8388608,-8388608,-8388608,-8388608,1231988,-8388608,-8388608,-8388608
10:54:56.538038,-8388608,-8388608,-8388608,-8388608,1171331,-8388608,-8388608,-8388608
10:54:56.538038,-8388608,-8388608,-8388608,-8388608,1202881,-8388608,-8388608,-8388608
10:54:56.555155,-8388608,-8388608,-8388608,-8388608,1275317,-8388608,-8388608,-8388608
10:54:56.555155,-8388608,-8388608,-8388608,-8388608,1296252,-8388608,-8388608,-8388608
10:54:56.555155,-8388608,-8388608,-8388608,-8388608,1248211,-8388608,-8388608,-8388608
10:54:56.555155,-8388608,-8388608,-8388608,-8388608,1186905,-8388608,-8388608,-8388608
10:54:56.571283,-8388608,-8388608,-8388608,-8388608,1206963,-8388608,-8388608,-8388608
10:54:56.575602,-8388608,-8388608,-8388608,-8388608,1276753,-8388608,-8388608,-8388608
10:54:56.576826,-8388608,-8388608,-8388608,-8388608,1298976,-8388608,-8388608,-8388608
10:54:56.576826,-8388608,-8388608,-8388608,-8388608,1237261,-8388608,-8388608,-8388608
10:54:56.587896,-8388608,-8388608,-8388608,-8388608,1176109,-8388608,-8388608,-8388608
10:54:56.587896,-8388608,-8388608,-8388608,-8388608,1195309,-8388608,-8388608,-8388608
10:54:56.595523,-8388608,-8388608,-8388608,-8388608,1265189,-8388608,-8388608,-8388608
10:54:56.595523,-8388608,-8388608,-8388608,-8388608,1287579,-8388608,-8388608,-8388608
10:54:56.603532,-8388608,-8388608,-8388608,-8388608,1238411,-8388608,-8388608,-8388608
10:54:56.604925,-8388608,-8388608,-8388608,-8388608,1178374,-8388608,-8388608,-8388608
10:54:56.604925,-8388608,-8388608,-8388608,-8388608,1198577,-8388608,-8388608,-8388608
10:54:56.604925,-8388608,-8388608,-8388608,-8388608,1268104,-8388608,-8388608,-8388608
10:54:56.619934,-8388608,-8388608,-8388608,-8388608,1291301,-8388608,-8388608,-8388608
10:54:56.622021,-8388608,-8388608,-8388608,-8388608,1235658,-8388608,-8388608,-8388608
10:54:56.622021,-8388608,-8388608,-8388608,-8388608,1179687,-8388608,-8388608,-8388608
10:54:56.622021,-8388608,-8388608,-8388608,-8388608,1198399,-8388608,-8388608,-8388608
10:54:56.622021,-8388608,-8388608,-8388608,-8388608,1269372,-8388608,-8388608,-8388608
10:54:56.638266,-8388608,-8388608,-8388608,-8388608,1287425,-8388608,-8388608,-8388608
10:54:56.638266,-8388608,-8388608,-8388608,-8388608,1235946,-8388608,-8388608,-8388608
10:54:56.638266,-8388608,-8388608,-8388608,-8388608,1180359,-8388608,-8388608,-8388608
10:54:56.638266,-8388608,-8388608,-8388608,-8388608,1203635,-8388608,-8388608,-8388608
10:54:56.654794,-8388608,-8388608,-8388608,-8388608,1268359,-8388608,-8388608,-8388608
10:54:56.654794,-8388608,-8388608,-8388608,-8388608,1293918,-8388608,-8388608,-8388608
10:54:56.654794,-8388608,-8388608,-8388608,-8388608,1240386,-8388608,-8388608,-8388608
10:54:56.654794,-8388608,-8388608,-8388608,-8388608,1181196,-8388608,-8388608,-8388608
10:54:56.672322,-8388608,-8388608,-8388608,-8388608,1202798,-8388608,-8388608,-8388608
10:54:56.672322,-8388608,-8388608,-8388608,-8388608,1271373,-8388608,-8388608,-8388608
10:54:56.672322,-8388608,-8388608,-8388608,-8388608,1293252,-8388608,-8388608,-8388608
10:54:56.672322,-8388608,-8388608,-8388608,-8388608,1242054,-8388608,-8388608,-8388608
10:54:56.687631,-8388608,-8388608,-8388608,-8388608,1185701,-8388608,-8388608,-8388608
10:54:56.691630,-8388608,-8388608,-8388608,-8388608,1210229,-8388608,-8388608,-8388608
10:54:56.695723,-8388608,-8388608,-8388608,-8388608,1275170,-8388608,-8388608,-8388608
10:54:56.696278,-8388608,-8388608,-8388608,-8388608,1300989,-8388608,-8388608,-8388608
10:54:56.704127,-8388608,-8388608,-8388608,-8388608,1252242,-8388608,-8388608,-8388608
10:54:56.707126,-8388608,-8388608,-8388608,-8388608,1186554,-8388608,-8388608,-8388608
10:54:56.711833,-8388608,-8388608,-8388608,-8388608,1199686,-8388608,-8388608,-8388608
10:54:56.715837,-8388608,-8388608,-8388608,-8388608,1271306,-8388608,-8388608,-8388608
10:54:56.719251,-8388608,-8388608,-8388608,-8388608,1293141,-8388608,-8388608,-8388608
10:54:56.720645,-8388608,-8388608,-8388608,-8388608,1242922,-8388608,-8388608,-8388608
10:54:56.720645,-8388608,-8388608,-8388608,-8388608,1185084,-8388608,-8388608,-8388608
10:54:56.720645,-8388608,-8388608,-8388608,-8388608,1210451,-8388608,-8388608,-8388608
10:54:56.720645,-8388608,-8388608,-8388608,-8388608,1275182,-8388608,-8388608,-8388608
10:54:56.737891,-8388608,-8388608,-8388608,-8388608,1298026,-8388608,-8388608,-8388608
10:54:56.737891,-8388608,-8388608,-8388608,-8388608,1244798,-8388608,-8388608,-8388608
10:54:56.737891,-8388608,-8388608,-8388608,-8388608,1183957,-8388608,-8388608,-8388608
10:54:56.737891,-8388608,-8388608,-8388608,-8388608,1206056,-8388608,-8388608,-8388608
10:54:56.754558,-8388608,-8388608,-8388608,-8388608,1283350,-8388608,-8388608,-8388608
10:54:56.754558,-8388608,-8388608,-8388608,-8388608,1298252,-8388608,-8388608,-8388608
10:54:56.754558,-8388608,-8388608,-8388608,-8388608,1246617,-8388608,-8388608,-8388608
10:54:56.754558,-8388608,-8388608,-8388608,-8388608,1190738,-8388608,-8388608,-8388608
10:54:56.771892,-8388608,-8388608,-8388608,-8388608,1209453,-8388608,-8388608,-8388608
10:54:56.771892,-8388608,-8388608,-8388608,-8388608,1273258,-8388608,-8388608,-8388608
10:54:56.771892,-8388608,-8388608,-8388608,-8388608,1295307,-8388608,-8388608,-8388608
10:54:56.771892,-8388608,-8388608,-8388608,-8388608,1242549,-8388608,-8388608,-8388608
10:54:56.787684,-8388608,-8388608,-8388608,-8388608,1190207,-8388608,-8388608,-8388608
10:54:56.790764,-8388608,-8388608,-8388608,-8388608,1210026,-8388608,-8388608,-8388608
10:54:56.793081,-8388608,-8388608,-8388608,-8388608,1271750,-8388608,-8388608,-8388608
10:54:56.795641,-8388608,-8388608,-8388608,-8388608,1294924,-8388608,-8388608,-8388608
10:54:56.795641,-8388608,-8388608,-8388608,-8388608,1242841,-8388608,-8388608,-8388608
10:54:56.804578,-8388608,-8388608,-8388608,-8388608,1185154,-8388608,-8388608,-8388608
10:54:56.804578,-8388608,-8388608,-8388608,-8388608,1211970,-8388608,-8388608,-8388608
10:54:56.804578,-8388608,-8388608,-8388608,-8388608,1276164,-8388608,-8388608,-8388608
10:54:56.804578,-8388608,-8388608,-8388608,-8388608,1293961,-8388608,-8388608,-8388608
10:54:56.821535,-8388608,-8388608,-8388608,-8388608,1244621,-8388608,-8388608,-8388608
10:54:56.821535,-8388608,-8388608,-8388608,-8388608,1187593,-8388608,-8388608,-8388608
10:54:56.821535,-8388608,-8388608,-8388608,-8388608,1209613,-8388608,-8388608,-8388608
10:54:56.821535,-8388608,-8388608,-8388608,-8388608,1276746,-8388608,-8388608,-8388608
10:54:56.838294,-8388608,-8388608,-8388608,-8388608,1299543,-8388608,-8388608,-8388608
10:54:56.838294,-8388608,-8388608,-8388608,-8388608,1245926,-8388608,-8388608,-8388608
10:54:56.838294,-8388608,-8388608,-8388608,-8388608,1187249,-8388608,-8388608,-8388608
10:54:56.838294,-8388608,-8388608,-8388608,-8388608,1208146,-8388608,-8388608,-8388608
10:54:56.854662,-8388608,-8388608,-8388608,-8388608,1277609,-8388608,-8388608,-8388608
10:54:56.854662,-8388608,-8388608,-8388608,-8388608,1303325,-8388608,-8388608,-8388608
10:54:56.854662,-8388608,-8388608,-8388608,-8388608,1247813,-8388608,-8388608,-8388608
10:54:56.854662,-8388608,-8388608,-8388608,-8388608,1186384,-8388608,-8388608,-8388608
10:54:56.870797,-8388608,-8388608,-8388608,-8388608,1211308,-8388608,-8388608,-8388608
10:54:56.871418,-8388608,-8388608,-8388608,-8388608,1279521,-8388608,-8388608,-8388608
10:54:56.871418,-8388608,-8388608,-8388608,-8388608,1291443,-8388608,-8388608,-8388608
10:54:56.871418,-8388608,-8388608,-8388608,-8388608,1244634,-8388608,-8388608,-8388608
10:54:56.887419,-8388608,-8388608,-8388608,-8388608,1189275,-8388608,-8388608,-8388608
10:54:56.888149,-8388608,-8388608,-8388608,-8388608,1208623,-8388608,-8388608,-8388608
10:54:56.888149,-8388608,-8388608,-8388608,-8388608,1274966,-8388608,-8388608,-8388608
10:54:56.895733,-8388608,-8388608,-8388608,-8388608,1297862,-8388608,-8388608,-8388608
10:54:56.903242,-8388608,-8388608,-8388608,-8388608,1248735,-8388608,-8388608,-8388608
10:54:56.906817,-8388608,-8388608,-8388608,-8388608,1185208,-8388608,-8388608,-8388608
10:54:56.910527,-8388608,-8388608,-8388608,-8388608,1204773,-8388608,-8388608,-8388608
10:54:56.914619,-8388608,-8388608,-8388608,-8388608,1271615,-8388608,-8388608,-8388608
10:54:56.914619,-8388608,-8388608,-8388608,-8388608,1294276,-8388608,-8388608,-8388608
10:54:56.922846,-8388608,-8388608,-8388608,-8388608,1244701,-8388608,-8388608,-8388608
10:54:56.927163,-8388608,-8388608,-8388608,-8388608,1191081,-8388608,-8388608,-8388608
10:54:56.931178,-8388608,-8388608,-8388608,-8388608,1207986,-8388608,-8388608,-8388608
10:54:56.935509,-8388608,-8388608,-8388608,-8388608,1269755,-8388608,-8388608,-8388608
10:54:56.937435,-8388608,-8388608,-8388608,-8388608,1291781,-8388608,-8388608,-8388608
10:54:56.937435,-8388608,-8388608,-8388608,-8388608,1247611,-8388608,-8388608,-8388608
10:54:56.937435,-8388608,-8388608,-8388608,-8388608,1193245,-8388608,-8388608,-8388608
10:54:56.937435,-8388608,-8388608,-8388608,-8388608,1198990,-8388608,-8388608,-8388608
10:54:56.953931,-8388608,-8388608,-8388608,-8388608,1264038,-8388608,-8388608,-8388608
10:54:56.953931,-8388608,-8388608,-8388608,-8388608,1289073,-8388608,-8388608,-8388608
10:54:56.953931,-8388608,-8388608,-8388608,-8388608,1241166,-8388608,-8388608,-8388608
10:54:56.953931,-8388608,-8388608,-8388608,-8388608,1183027,-8388608,-8388608,-8388608
10:54:56.971297,-8388608,-8388608,-8388608,-8388608,1201235,-8388608,-8388608,-8388608
10:54:56.971297,-8388608,-8388608,-8388608,-8388608,1269825,-8388608,-8388608,-8388608
10:54:56.971297,-8388608,-8388608,-8388608,-8388608,1297083,-8388608,-8388608,-8388608
10:54:56.971297,-8388608,-8388608,-8388608,-8388608,1250397,-8388608,-8388608,-8388608
10:54:56.987714,-8388608,-8388608,-8388608,-8388608,1192265,-8388608,-8388608,-8388608
10:54:56.987714,-8388608,-8388608,-8388608,-8388608,1200319,-8388608,-8388608,-8388608
10:54:56.995778,-8388608,-8388608,-8388608,-8388608,1268923,-8388608,-8388608,-8388608
10:54:56.995778,-8388608,-8388608,-8388608,-8388608,1300461,-8388608,-8388608,-8388608
10:54:57.004006,-8388608,-8388608,-8388608,-8388608,1251951,-8388608,-8388608,-8388608
10:54:57.008086,-8388608,-8388608,-8388608,-8388608,1187327,-8388608,-8388608,-8388608
10:54:57.010806,-8388608,-8388608,-8388608,-8388608,1202757,-8388608,-8388608,-8388608
10:54:57.010806,-8388608,-8388608,-8388608,-8388608,1267941,-8388608,-8388608,-8388608
10:54:57.010806,-8388608,-8388608,-8388608,-8388608,1294999,-8388608,-8388608,-8388608
10:54:57.021996,-8388608,-8388608,-8388608,-8388608,1250082,-8388608,-8388608,-8388608
10:54:57.021996,-8388608,-8388608,-8388608,-8388608,1187416,-8388608,-8388608,-8388608
10:54:57.021996,-8388608,-8388608,-8388608,-8388608,1203926,-8388608,-8388608,-8388608
10:54:57.021996,-8388608,-8388608,-8388608,-8388608,1274076,-8388608,-8388608,-8388608
10:54:57.037909,-8388608,-8388608,-8388608,-8388608,1302421,-8388608,-8388608,-8388608
10:54:57.037909,-8388608,-8388608,-8388608,-8388608,1252395,-8388608,-8388608,-8388608
10:54:57.037909,-8388608,-8388608,-8388608,-8388608,1199738,-8388608,-8388608,-8388608
10:54:57.037909,-8388608,-8388608,-8388608,-8388608,1211094,-8388608,-8388608,-8388608
10:54:57.054868,-8388608,-8388608,-8388608,-8388608,1261931,-8388608,-8388608,-8388608
10:54:57.054868,-8388608,-8388608,-8388608,-8388608,1277774,-8388608,-8388608,-8388608
10:54:57.054868,-8388608,-8388608,-8388608,-8388608,1223176,-8388608,-8388608,-8388608
10:54:57.054868,-8388608,-8388608,-8388608,-8388608,1143504,-8388608,-8388608,-8388608
10:54:57.071315,-8388608,-8388608,-8388608,-8388608,1148799,-8388608,-8388608,-8388608
10:54:57.071315,-8388608,-8388608,-8388608,-8388608,1218983,-8388608,-8388608,-8388608
10:54:57.071315,-8388608,-8388608,-8388608,-8388608,1267030,-8388608,-8388608,-8388608
10:54:57.071315,-8388608,-8388608,-8388608,-8388608,1238509,-8388608,-8388608,-8388608
10:54:57.087850,-8388608,-8388608,-8388608,-8388608,1187936,-8388608,-8388608,-8388608
10:54:57.087850,-8388608,-8388608,-8388608,-8388608,1207363,-8388608,-8388608,-8388608
10:54:57.095876,-8388608,-8388608,-8388608,-8388608,1278255,-8388608,-8388608,-8388608
10:54:57.095876,-8388608,-8388608,-8388608,-8388608,1306308,-8388608,-8388608,-8388608
10:54:57.102886,-8388608,-8388608,-8388608,-8388608,1255367,-8388608,-8388608,-8388608
10:54:57.104821,-8388608,-8388608,-8388608,-8388608,1190043,-8388608,-8388608,-8388608
10:54:57.104821,-8388608,-8388608,-8388608,-8388608,1203284,-8388608,-8388608,-8388608
10:54:57.104821,-8388608,-8388608,-8388608,-8388608,1270673,-8388608,-8388608,-8388608
10:54:57.104821,-8388608,-8388608,-8388608,-8388608,1299921,-8388608,-8388608,-8388608
10:54:57.121870,-8388608,-8388608,-8388608,-8388608,1254750,-8388608,-8388608,-8388608
10:54:57.125905,-8388608,-8388608,-8388608,-8388608,1198904,-8388608,-8388608,-8388608
10:54:57.129728,-8388608,-8388608,-8388608,-8388608,1209834,-8388608,-8388608,-8388608
10:54:57.129728,-8388608,-8388608,-8388608,-8388608,1272363,-8388608,-8388608,-8388608
10:54:57.139153,-8388608,-8388608,-8388608,-8388608,1302218,-8388608,-8388608,-8388608
10:54:57.143704,-8388608,-8388608,-8388608,-8388608,1252731,-8388608,-8388608,-8388608
10:54:57.148436,-8388608,-8388608,-8388608,-8388608,1195448,-8388608,-8388608,-8388608
10:54:57.151661,-8388608,-8388608,-8388608,-8388608,1210625,-8388608,-8388608,-8388608
10:54:57.153777,-8388608,-8388608,-8388608,-8388608,1279387,-8388608,-8388608,-8388608
10:54:57.153777,-8388608,-8388608,-8388608,-8388608,1303408,-8388608,-8388608,-8388608
10:54:57.153777,-8388608,-8388608,-8388608,-8388608,1258424,-8388608,-8388608,-8388608
10:54:57.153777,-8388608,-8388608,-8388608,-8388608,1198728,-8388608,-8388608,-8388608
10:54:57.171356,-8388608,-8388608,-8388608,-8388608,1214401,-8388608,-8388608,-8388608
10:54:57.171356,-8388608,-8388608,-8388608,-8388608,1276340,-8388608,-8388608,-8388608
10:54:57.171356,-8388608,-8388608,-8388608,-8388608,1292729,-8388608,-8388608,-8388608
10:54:57.171356,-8388608,-8388608,-8388608,-8388608,1253814,-8388608,-8388608,-8388608
10:54:57.187146,-8388608,-8388608,-8388608,-8388608,1192186,-8388608,-8388608,-8388608
10:54:57.187606,-8388608,-8388608,-8388608,-8388608,1210833,-8388608,-8388608,-8388608
10:54:57.187606,-8388608,-8388608,-8388608,-8388608,1272445,-8388608,-8388608,-8388608
10:54:57.196118,-8388608,-8388608,-8388608,-8388608,1303135,-8388608,-8388608,-8388608
10:54:57.196118,-8388608,-8388608,-8388608,-8388608,1259004,-8388608,-8388608,-8388608
10:54:57.204551,-8388608,-8388608,-8388608,-8388608,1204135,-8388608,-8388608,-8388608
10:54:57.204551,-8388608,-8388608,-8388608,-8388608,1208643,-8388608,-8388608,-8388608
10:54:57.204551,-8388608,-8388608,-8388608,-8388608,1267121,-8388608,-8388608,-8388608
10:54:57.219561,-8388608,-8388608,-8388608,-8388608,1310647,-8388608,-8388608,-8388608
10:54:57.221915,-8388608,-8388608,-8388608,-8388608,1259521,-8388608,-8388608,-8388608
10:54:57.226257,-8388608,-8388608,-8388608,-8388608,1193444,-8388608,-8388608,-8388608
10:54:57.226257,-8388608,-8388608,-8388608,-8388608,1205174,-8388608,-8388608,-8388608
10:54:57.236141,-8388608,-8388608,-8388608,-8388608,1272911,-8388608,-8388608,-8388608
10:54:57.237200,-8388608,-8388608,-8388608,-8388608,1304439,-8388608,-8388608,-8388608
10:54:57.237200,-8388608,-8388608,-8388608,-8388608,1255418,-8388608,-8388608,-8388608
10:54:57.237200,-8388608,-8388608,-8388608,-8388608,1192709,-8388608,-8388608,-8388608
10:54:57.237200,-8388608,-8388608,-8388608,-8388608,1214276,-8388608,-8388608,-8388608
10:54:57.253610,-8388608,-8388608,-8388608,-8388608,1273873,-8388608,-8388608,-8388608
10:54:57.253610,-8388608,-8388608,-8388608,-8388608,1297801,-8388608,-8388608,-8388608
10:54:57.253610,-8388608,-8388608,-8388608,-8388608,1251048,-8388608,-8388608,-8388608
10:54:57.253610,-8388608,-8388608,-8388608,-8388608,1191090,-8388608,-8388608,-8388608
10:54:57.270928,-8388608,-8388608,-8388608,-8388608,1209156,-8388608,-8388608,-8388608
10:54:57.270928,-8388608,-8388608,-8388608,-8388608,1283564,-8388608,-8388608,-8388608
10:54:57.270928,-8388608,-8388608,-8388608,-8388608,1301393,-8388608,-8388608,-8388608
10:54:57.270928,-8388608,-8388608,-8388608,-8388608,1251301,-8388608,-8388608,-8388608
10:54:57.286552,-8388608,-8388608,-8388608,-8388608,1188581,-8388608,-8388608,-8388608
10:54:57.288089,-8388608,-8388608,-8388608,-8388608,1203729,-8388608,-8388608,-8388608
10:54:57.288089,-8388608,-8388608,-8388608,-8388608,1262506,-8388608,-8388608,-8388608
10:54:57.296174,-8388608,-8388608,-8388608,-8388608,1300589,-8388608,-8388608,-8388608
10:54:57.296174,-8388608,-8388608,-8388608,-8388608,1258610,-8388608,-8388608,-8388608
10:54:57.304530,-8388608,-8388608,-8388608,-8388608,1192955,-8388608,-8388608,-8388608
10:54:57.304530,-8388608,-8388608,-8388608,-8388608,1211163,-8388608,-8388608,-8388608
10:54:57.304530,-8388608,-8388608,-8388608,-8388608,1271648,-8388608,-8388608,-8388608
10:54:57.304530,-8388608,-8388608,-8388608,-8388608,1304045,-8388608,-8388608,-8388608
10:54:57.322489,-8388608,-8388608,-8388608,-8388608,1262651,-8388608,-8388608,-8388608
10:54:57.325290,-8388608,-8388608,-8388608,-8388608,1196796,-8388608,-8388608,-8388608
10:54:57.325290,-8388608,-8388608,-8388608,-8388608,1209807,-8388608,-8388608,-8388608
10:54:57.325290,-8388608,-8388608,-8388608,-8388608,1279169,-8388608,-8388608,-8388608
10:54:57.338172,-8388608,-8388608,-8388608,-8388608,1316155,-8388608,-8388608,-8388608
10:54:57.342524,-8388608,-8388608,-8388608,-8388608,1268243,-8388608,-8388608,-8388608
10:54:57.346672,-8388608,-8388608,-8388608,-8388608,1198471,-8388608,-8388608,-8388608
10:54:57.350677,-8388608,-8388608,-8388608,-8388608,1211495,-8388608,-8388608,-8388608
10:54:57.353740,-8388608,-8388608,-8388608,-8388608,1278610,-8388608,-8388608,-8388608
10:54:57.353740,-8388608,-8388608,-8388608,-8388608,1314307,-8388608,-8388608,-8388608
10:54:57.353740,-8388608,-8388608,-8388608,-8388608,1264630,-8388608,-8388608,-8388608
10:54:57.353740,-8388608,-8388608,-8388608,-8388608,1204987,-8388608,-8388608,-8388608
10:54:57.370098,-8388608,-8388608,-8388608,-8388608,1215540,-8388608,-8388608,-8388608
10:54:57.370098,-8388608,-8388608,-8388608,-8388608,1283244,-8388608,-8388608,-8388608
10:54:57.370098,-8388608,-8388608,-8388608,-8388608,1315774,-8388608,-8388608,-8388608
10:54:57.370098,-8388608,-8388608,-8388608,-8388608,1269823,-8388608,-8388608,-8388608
10:54:57.385976,-8388608,-8388608,-8388608,-8388608,1205131,-8388608,-8388608,-8388608
10:54:57.386978,-8388608,-8388608,-8388608,-8388608,1220538,-8388608,-8388608,-8388608
10:54:57.386978,-8388608,-8388608,-8388608,-8388608,1290174,-8388608,-8388608,-8388608
10:54:57.396555,-8388608,-8388608,-8388608,-8388608,1324270,-8388608,-8388608,-8388608
10:54:57.396555,-8388608,-8388608,-8388608,-8388608,1274420,-8388608,-8388608,-8388608
10:54:57.404196,-8388608,-8388608,-8388608,-8388608,1221948,-8388608,-8388608,-8388608
10:54:57.404196,-8388608,-8388608,-8388608,-8388608,1244064,-8388608,-8388608,-8388608
10:54:57.404196,-8388608,-8388608,-8388608,-8388608,1281706,-8388608,-8388608,-8388608
10:54:57.404196,-8388608,-8388608,-8388608,-8388608,1277519,-8388608,-8388608,-8388608
10:54:57.420860,-8388608,-8388608,-8388608,-8388608,1251155,-8388608,-8388608,-8388608
10:54:57.420860,-8388608,-8388608,-8388608,-8388608,1222364,-8388608,-8388608,-8388608
10:54:57.420860,-8388608,-8388608,-8388608,-8388608,1246574,-8388608,-8388608,-8388608
10:54:57.420860,-8388608,-8388608,-8388608,-8388608,1283424,-8388608,-8388608,-8388608
10:54:57.437541,-8388608,-8388608,-8388608,-8388608,1291701,-8388608,-8388608,-8388608
10:54:57.441662,-8388608,-8388608,-8388608,-8388608,1270071,-8388608,-8388608,-8388608
10:54:57.443169,-8388608,-8388608,-8388608,-8388608,1211034,-8388608,-8388608,-8388608
10:54:57.443169,-8388608,-8388608,-8388608,-8388608,1220326,-8388608,-8388608,-8388608
10:54:57.454201,-8388608,-8388608,-8388608,-8388608,1289068,-8388608,-8388608,-8388608
10:54:57.458854,-8388608,-8388608,-8388608,-8388608,1323618,-8388608,-8388608,-8388608
10:54:57.462903,-8388608,-8388608,-8388608,-8388608,1280947,-8388608,-8388608,-8388608
10:54:57.466426,-8388608,-8388608,-8388608,-8388608,1214328,-8388608,-8388608,-8388608
10:54:57.469901,-8388608,-8388608,-8388608,-8388608,1225188,-8388608,-8388608,-8388608
10:54:57.473982,-8388608,-8388608,-8388608,-8388608,1274506,-8388608,-8388608,-8388608
10:54:57.477844,-8388608,-8388608,-8388608,-8388608,1315446,-8388608,-8388608,-8388608
10:54:57.480077,-8388608,-8388608,-8388608,-8388608,1283363,-8388608,-8388608,-8388608
10:54:57.485935,-8388608,-8388608,-8388608,-8388608,1222392,-8388608,-8388608,-8388608
10:54:57.487347,-8388608,-8388608,-8388608,-8388608,1228413,-8388608,-8388608,-8388608
10:54:57.487347,-8388608,-8388608,-8388608,-8388608,1289824,-8388608,-8388608,-8388608
10:54:57.496913,-8388608,-8388608,-8388608,-8388608,1332882,-8388608,-8388608,-8388608
10:54:57.496913,-8388608,-8388608,-8388608,-8388608,1278883,-8388608,-8388608,-8388608
10:54:57.503998,-8388608,-8388608,-8388608,-8388608,1205718,-8388608,-8388608,-8388608
10:54:57.503998,-8388608,-8388608,-8388608,-8388608,1221220,-8388608,-8388608,-8388608
10:54:57.503998,-8388608,-8388608,-8388608,-8388608,1301111,-8388608,-8388608,-8388608
10:54:57.503998,-8388608,-8388608,-8388608,-8388608,1333326,-8388608,-8388608,-8388608
10:54:57.520833,-8388608,-8388608,-8388608,-8388608,1281344,-8388608,-8388608,-8388608
10:54:57.520833,-8388608,-8388608,-8388608,-8388608,1204708,-8388608,-8388608,-8388608
10:54:57.520833,-8388608,-8388608,-8388608,-8388608,1222673,-8388608,-8388608,-8388608
10:54:57.520833,-8388608,-8388608,-8388608,-8388608,1295057,-8388608,-8388608,-8388608
10:54:57.538834,-8388608,-8388608,-8388608,-8388608,1336252,-8388608,-8388608,-8388608
10:54:57.542753,-8388608,-8388608,-8388608,-8388608,1278769,-8388608,-8388608,-8388608
10:54:57.546967,-8388608,-8388608,-8388608,-8388608,1207251,-8388608,-8388608,-8388608
10:54:57.547936,-8388608,-8388608,-8388608,-8388608,1222348,-8388608,-8388608,-8388608
10:54:57.554818,-8388608,-8388608,-8388608,-8388608,1297181,-8388608,-8388608,-8388608
10:54:57.560154,-8388608,-8388608,-8388608,-8388608,1341104,-8388608,-8388608,-8388608
10:54:57.563457,-8388608,-8388608,-8388608,-8388608,1287121,-8388608,-8388608,-8388608
10:54:57.567438,-8388608,-8388608,-8388608,-8388608,1200004,-8388608,-8388608,-8388608
10:54:57.570387,-8388608,-8388608,-8388608,-8388608,1217570,-8388608,-8388608,-8388608
10:54:57.570387,-8388608,-8388608,-8388608,-8388608,1294971,-8388608,-8388608,-8388608
10:54:57.570387,-8388608,-8388608,-8388608,-8388608,1330016,-8388608,-8388608,-8388608
10:54:57.570387,-8388608,-8388608,-8388608,-8388608,1274672,-8388608,-8388608,-8388608
10:54:57.570387,-8388608,-8388608,-8388608,-8388608,1201029,-8388608,-8388608,-8388608
10:54:57.587196,-8388608,-8388608,-8388608,-8388608,1224859,-8388608,-8388608,-8388608
10:54:57.587196,-8388608,-8388608,-8388608,-8388608,1299469,-8388608,-8388608,-8388608
10:54:57.597205,-8388608,-8388608,-8388608,-8388608,1331019,-8388608,-8388608,-8388608
10:54:57.597205,-8388608,-8388608,-8388608,-8388608,1279186,-8388608,-8388608,-8388608
10:54:57.604130,-8388608,-8388608,-8388608,-8388608,1200863,-8388608,-8388608,-8388608
10:54:57.604130,-8388608,-8388608,-8388608,-8388608,1214864,-8388608,-8388608,-8388608
10:54:57.604130,-8388608,-8388608,-8388608,-8388608,1297176,-8388608,-8388608,-8388608
10:54:57.604130,-8388608,-8388608,-8388608,-8388608,1329903,-8388608,-8388608,-8388608
10:54:57.621011,-8388608,-8388608,-8388608,-8388608,1268593,-8388608,-8388608,-8388608
10:54:57.621011,-8388608,-8388608,-8388608,-8388608,1199568,-8388608,-8388608,-8388608
10:54:57.621011,-8388608,-8388608,-8388608,-8388608,1216797,-8388608,-8388608,-8388608
10:54:57.621011,-8388608,-8388608,-8388608,-8388608,1291929,-8388608,-8388608,-8388608
10:54:57.637665,-8388608,-8388608,-8388608,-8388608,1334476,-8388608,-8388608,-8388608
10:54:57.637665,-8388608,-8388608,-8388608,-8388608,1278521,-8388608,-8388608,-8388608
10:54:57.637665,-8388608,-8388608,-8388608,-8388608,1198523,-8388608,-8388608,-8388608
10:54:57.637665,-8388608,-8388608,-8388608,-8388608,1213178,-8388608,-8388608,-8388608
10:54:57.654676,-8388608,-8388608,-8388608,-8388608,1289571,-8388608,-8388608,-8388608
10:54:57.657632,-8388608,-8388608,-8388608,-8388608,1329371,-8388608,-8388608,-8388608
10:54:57.658843,-8388608,-8388608,-8388608,-8388608,1275573,-8388608,-8388608,-8388608
10:54:57.658843,-8388608,-8388608,-8388608,-8388608,1207489,-8388608,-8388608,-8388608
10:54:57.669816,-8388608,-8388608,-8388608,-8388608,1218991,-8388608,-8388608,-8388608
10:54:57.670282,-8388608,-8388608,-8388608,-8388608,1287615,-8388608,-8388608,-8388608
10:54:57.670282,-8388608,-8388608,-8388608,-8388608,1328226,-8388608,-8388608,-8388608
10:54:57.670282,-8388608,-8388608,-8388608,-8388608,1272964,-8388608,-8388608,-8388608
10:54:57.685765,-8388608,-8388608,-8388608,-8388608,1196961,-8388608,-8388608,-8388608
10:54:57.687299,-8388608,-8388608,-8388608,-8388608,1215473,-8388608,-8388608,-8388608
10:54:57.687299,-8388608,-8388608,-8388608,-8388608,1299504,-8388608,-8388608,-8388608
10:54:57.698117,-8388608,-8388608,-8388608,-8388608,1334134,-8388608,-8388608,-8388608
10:54:57.698325,-8388608,-8388608,-8388608,-8388608,1282429,-8388608,-8388608,-8388608
10:54:57.703814,-8388608,-8388608,-8388608,-8388608,1201088,-8388608,-8388608,-8388608
10:54:57.703814,-8388608,-8388608,-8388608,-8388608,1219919,-8388608,-8388608,-8388608
10:54:57.703814,-8388608,-8388608,-8388608,-8388608,1294118,-8388608,-8388608,-8388608
10:54:57.703814,-8388608,-8388608,-8388608,-8388608,1312948,-8388608,-8388608,-8388608
10:54:57.720361,-8388608,-8388608,-8388608,-8388608,1246420,-8388608,-8388608,-8388608
10:54:57.720361,-8388608,-8388608,-8388608,-8388608,1152675,-8388608,-8388608,-8388608
10:54:57.720361,-8388608,-8388608,-8388608,-8388608,1157678,-8388608,-8388608,-8388608
10:54:57.720361,-8388608,-8388608,-8388608,-8388608,1231036,-8388608,-8388608,-8388608
10:54:57.736853,-8388608,-8388608,-8388608,-8388608,1291099,-8388608,-8388608,-8388608
10:54:57.736853,-8388608,-8388608,-8388608,-8388608,1258108,-8388608,-8388608,-8388608
10:54:57.736853,-8388608,-8388608,-8388608,-8388608,1188380,-8388608,-8388608,-8388608
10:54:57.736853,-8388608,-8388608,-8388608,-8388608,1211902,-8388608,-8388608,-8388608
10:54:57.753564,-8388608,-8388608,-8388608,-8388608,1288568,-8388608,-8388608,-8388608
10:54:57.757652,-8388608,-8388608,-8388608,-8388608,1327499,-8388608,-8388608,-8388608
10:54:57.761731,-8388608,-8388608,-8388608,-8388608,1270738,-8388608,-8388608,-8388608
10:54:57.762993,-8388608,-8388608,-8388608,-8388608,1190891,-8388608,-8388608,-8388608
10:54:57.768942,-8388608,-8388608,-8388608,-8388608,1210663,-8388608,-8388608,-8388608
10:54:57.772547,-8388608,-8388608,-8388608,-8388608,1285064,-8388608,-8388608,-8388608
10:54:57.778400,-8388608,-8388608,-8388608,-8388608,1329009,-8388608,-8388608,-8388608
10:54:57.782437,-8388608,-8388608,-8388608,-8388608,1274979,-8388608,-8388608,-8388608
10:54:57.785762,-8388608,-8388608,-8388608,-8388608,1194826,-8388608,-8388608,-8388608
10:54:57.786768,-8388608,-8388608,-8388608,-8388608,1212589,-8388608,-8388608,-8388608
10:54:57.786768,-8388608,-8388608,-8388608,-8388608,1285697,-8388608,-8388608,-8388608
10:54:57.797383,-8388608,-8388608,-8388608,-8388608,1326489,-8388608,-8388608,-8388608
10:54:57.799589,-8388608,-8388608,-8388608,-8388608,1271656,-8388608,-8388608,-8388608
10:54:57.803480,-8388608,-8388608,-8388608,-8388608,1191624,-8388608,-8388608,-8388608
10:54:57.803480,-8388608,-8388608,-8388608,-8388608,1212398,-8388608,-8388608,-8388608
10:54:57.803480,-8388608,-8388608,-8388608,-8388608,1284813,-8388608,-8388608,-8388608
10:54:57.803480,-8388608,-8388608,-8388608,-8388608,1314782,-8388608,-8388608,-8388608
10:54:57.820461,-8388608,-8388608,-8388608,-8388608,1264621,-8388608,-8388608,-8388608
10:54:57.820461,-8388608,-8388608,-8388608,-8388608,1189046,-8388608,-8388608,-8388608
10:54:57.820461,-8388608,-8388608,-8388608,-8388608,1197506,-8388608,-8388608,-8388608
10:54:57.820461,-8388608,-8388608,-8388608,-8388608,1276693,-8388608,-8388608,-8388608
10:54:57.837093,-8388608,-8388608,-8388608,-8388608,1313515,-8388608,-8388608,-8388608
10:54:57.837093,-8388608,-8388608,-8388608,-8388608,1258637,-8388608,-8388608,-8388608
10:54:57.837093,-8388608,-8388608,-8388608,-8388608,1176668,-8388608,-8388608,-8388608
10:54:57.837093,-8388608,-8388608,-8388608,-8388608,1190289,-8388608,-8388608,-8388608
10:54:57.853706,-8388608,-8388608,-8388608,-8388608,1272243,-8388608,-8388608,-8388608
10:54:57.853706,-8388608,-8388608,-8388608,-8388608,1311280,-8388608,-8388608,-8388608
10:54:57.853706,-8388608,-8388608,-8388608,-8388608,1253743,-8388608,-8388608,-8388608
10:54:57.853706,-8388608,-8388608,-8388608,-8388608,1178027,-8388608,-8388608,-8388608
10:54:57.869879,-8388608,-8388608,-8388608,-8388608,1198906,-8388608,-8388608,-8388608
10:54:57.872875,-8388608,-8388608,-8388608,-8388608,1270946,-8388608,-8388608,-8388608
10:54:57.875690,-8388608,-8388608,-8388608,-8388608,1307674,-8388608,-8388608,-8388608
10:54:57.875690,-8388608,-8388608,-8388608,-8388608,1252561,-8388608,-8388608,-8388608
10:54:57.886305,-8388608,-8388608,-8388608,-8388608,1175219,-8388608,-8388608,-8388608
10:54:57.886885,-8388608,-8388608,-8388608,-8388608,1196269,-8388608,-8388608,-8388608
10:54:57.886885,-8388608,-8388608,-8388608,-8388608,1268961,-8388608,-8388608,-8388608
10:54:57.897482,-8388608,-8388608,-8388608,-8388608,1297448,-8388608,-8388608,-8388608
10:54:57.901989,-8388608,-8388608,-8388608,-8388608,1246591,-8388608,-8388608,-8388608
10:54:57.903782,-8388608,-8388608,-8388608,-8388608,1170534,-8388608,-8388608,-8388608
10:54:57.903782,-8388608,-8388608,-8388608,-8388608,1183529,-8388608,-8388608,-8388608
10:54:57.903782,-8388608,-8388608,-8388608,-8388608,1259253,-8388608,-8388608,-8388608
10:54:57.903782,-8388608,-8388608,-8388608,-8388608,1302067,-8388608,-8388608,-8388608
10:54:57.920298,-8388608,-8388608,-8388608,-8388608,1245904,-8388608,-8388608,-8388608
10:54:57.920298,-8388608,-8388608,-8388608,-8388608,1163477,-8388608,-8388608,-8388608
10:54:57.920298,-8388608,-8388608,-8388608,-8388608,1177679,-8388608,-8388608,-8388608
10:54:57.920298,-8388608,-8388608,-8388608,-8388608,1252837,-8388608,-8388608,-8388608
10:54:57.937753,-8388608,-8388608,-8388608,-8388608,1292008,-8388608,-8388608,-8388608
10:54:57.937753,-8388608,-8388608,-8388608,-8388608,1239784,-8388608,-8388608,-8388608
10:54:57.937753,-8388608,-8388608,-8388608,-8388608,1171739,-8388608,-8388608,-8388608
10:54:57.937753,-8388608,-8388608,-8388608,-8388608,1179344,-8388608,-8388608,-8388608
10:54:57.952764,-8388608,-8388608,-8388608,-8388608,1249713,-8388608,-8388608,-8388608
10:54:57.954447,-8388608,-8388608,-8388608,-8388608,1291762,-8388608,-8388608,-8388608
10:54:57.960748,-8388608,-8388608,-8388608,-8388608,1239039,-8388608,-8388608,-8388608
10:54:57.960748,-8388608,-8388608,-8388608,-8388608,1160026,-8388608,-8388608,-8388608
10:54:57.968854,-8388608,-8388608,-8388608,-8388608,1181521,-8388608,-8388608,-8388608
10:54:57.973292,-8388608,-8388608,-8388608,-8388608,1255216,-8388608,-8388608,-8388608
10:54:57.978172,-8388608,-8388608,-8388608,-8388608,1287664,-8388608,-8388608,-8388608
10:54:57.981998,-8388608,-8388608,-8388608,-8388608,1238938,-8388608,-8388608,-8388608
10:54:57.985380,-8388608,-8388608,-8388608,-8388608,1165896,-8388608,-8388608,-8388608
10:54:57.986555,-8388608,-8388608,-8388608,-8388608,1177804,-8388608,-8388608,-8388608
10:54:57.986555,-8388608,-8388608,-8388608,-8388608,1248709,-8388608,-8388608,-8388608
10:54:57.997609,-8388608,-8388608,-8388608,-8388608,1293385,-8388608,-8388608,-8388608
10:54:58.002118,-8388608,-8388608,-8388608,-8388608,1244814,-8388608,-8388608,-8388608
10:54:58.003494,-8388608,-8388608,-8388608,-8388608,1163883,-8388608,-8388608,-8388608
10:54:58.003494,-8388608,-8388608,-8388608,-8388608,1179562,-8388608,-8388608,-8388608
10:54:58.003494,-8388608,-8388608,-8388608,-8388608,1253716,-8388608,-8388608,-8388608
10:54:58.003494,-8388608,-8388608,-8388608,-8388608,1297354,-8388608,-8388608,-8388608
10:54:58.020012,-8388608,-8388608,-8388608,-8388608,1246476,-8388608,-8388608,-8388608
10:54:58.020012,-8388608,-8388608,-8388608,-8388608,1169078,-8388608,-8388608,-8388608
10:54:58.020012,-8388608,-8388608,-8388608,-8388608,1179407,-8388608,-8388608,-8388608
10:54:58.020012,-8388608,-8388608,-8388608,-8388608,1254992,-8388608,-8388608,-8388608
10:54:58.037214,-8388608,-8388608,-8388608,-8388608,1291355,-8388608,-8388608,-8388608
10:54:58.037214,-8388608,-8388608,-8388608,-8388608,1242419,-8388608,-8388608,-8388608
10:54:58.037214,-8388608,-8388608,-8388608,-8388608,1167461,-8388608,-8388608,-8388608
10:54:58.037214,-8388608,-8388608,-8388608,-8388608,1178925,-8388608,-8388608,-8388608
10:54:58.052428,-8388608,-8388608,-8388608,-8388608,1249116,-8388608,-8388608,-8388608
10:54:58.054155,-8388608,-8388608,-8388608,-8388608,1292504,-8388608,-8388608,-8388608
10:54:58.054155,-8388608,-8388608,-8388608,-8388608,1242298,-8388608,-8388608,-8388608
10:54:58.054155,-8388608,-8388608,-8388608,-8388608,1162272,-8388608,-8388608,-8388608
10:54:58.069821,-8388608,-8388608,-8388608,-8388608,1179194,-8388608,-8388608,-8388608
10:54:58.073816,-8388608,-8388608,-8388608,-8388608,1252606,-8388608,-8388608,-8388608
10:54:58.077447,-8388608,-8388608,-8388608,-8388608,1294123,-8388608,-8388608,-8388608
10:54:58.078018,-8388608,-8388608,-8388608,-8388608,1241060,-8388608,-8388608,-8388608
10:54:58.078018,-8388608,-8388608,-8388608,-8388608,1164980,-8388608,-8388608,-8388608
10:54:58.086414,-8388608,-8388608,-8388608,-8388608,1185679,-8388608,-8388608,-8388608
10:54:58.086414,-8388608,-8388608,-8388608,-8388608,1250845,-8388608,-8388608,-8388608
10:54:58.098032,-8388608,-8388608,-8388608,-8388608,1285391,-8388608,-8388608,-8388608
10:54:58.102164,-8388608,-8388608,-8388608,-8388608,1236710,-8388608,-8388608,-8388608
10:54:58.103263,-8388608,-8388608,-8388608,-8388608,1164396,-8388608,-8388608,-8388608
10:54:58.103263,-8388608,-8388608,-8388608,-8388608,1178617,-8388608,-8388608,-8388608
10:54:58.103263,-8388608,-8388608,-8388608,-8388608,1248419,-8388608,-8388608,-8388608
10:54:58.103263,-8388608,-8388608,-8388608,-8388608,1291291,-8388608,-8388608,-8388608
10:54:58.120056,-8388608,-8388608,-8388608,-8388608,1238064,-8388608,-8388608,-8388608
10:54:58.120056,-8388608,-8388608,-8388608,-8388608,1162269,-8388608,-8388608,-8388608
10:54:58.120056,-8388608,-8388608,-8388608,-8388608,1169953,-8388608,-8388608,-8388608
10:54:58.120056,-8388608,-8388608,-8388608,-8388608,1244460,-8388608,-8388608,-8388608
10:54:58.136487,-8388608,-8388608,-8388608,-8388608,1292423,-8388608,-8388608,-8388608
10:54:58.136487,-8388608,-8388608,-8388608,-8388608,1240629,-8388608,-8388608,-8388608
10:54:58.136487,-8388608,-8388608,-8388608,-8388608,1161988,-8388608,-8388608,-8388608
10:54:58.136487,-8388608,-8388608,-8388608,-8388608,1174508,-8388608,-8388608,-8388608
10:54:58.153292,-8388608,-8388608,-8388608,-8388608,1244954,-8388608,-8388608,-8388608
10:54:58.153292,-8388608,-8388608,-8388608,-8388608,1291414,-8388608,-8388608,-8388608
10:54:58.153292,-8388608,-8388608,-8388608,-8388608,1238708,-8388608,-8388608,-8388608
10:54:58.153292,-8388608,-8388608,-8388608,-8388608,1160766,-8388608,-8388608,-8388608
10:54:58.168663,-8388608,-8388608,-8388608,-8388608,1169172,-8388608,-8388608,-8388608
10:54:58.170178,-8388608,-8388608,-8388608,-8388608,1244127,-8388608,-8388608,-8388608
10:54:58.177141,-8388608,-8388608,-8388608,-8388608,1286711,-8388608,-8388608,-8388608
10:54:58.177141,-8388608,-8388608,-8388608,-8388608,1238488,-8388608,-8388608,-8388608
10:54:58.177141,-8388608,-8388608,-8388608,-8388608,1161856,-8388608,-8388608,-8388608
10:54:58.188282,-8388608,-8388608,-8388608,-8388608,1171871,-8388608,-8388608,-8388608
10:54:58.192744,-8388608,-8388608,-8388608,-8388608,1246289,-8388608,-8388608,-8388608
10:54:58.196917,-8388608,-8388608,-8388608,-8388608,1289302,-8388608,-8388608,-8388608
10:54:58.200228,-8388608,-8388608,-8388608,-8388608,1238536,-8388608,-8388608,-8388608
10:54:58.202743,-8388608,-8388608,-8388608,-8388608,1159118,-8388608,-8388608,-8388608
10:54:58.202743,-8388608,-8388608,-8388608,-8388608,1173618,-8388608,-8388608,-8388608
10:54:58.202743,-8388608,-8388608,-8388608,-8388608,1244170,-8388608,-8388608,-8388608
10:54:58.202743,-8388608,-8388608,-8388608,-8388608,1284256,-8388608,-8388608,-8388608
10:54:58.219555,-8388608,-8388608,-8388608,-8388608,1233928,-8388608,-8388608,-8388608
10:54:58.219555,-8388608,-8388608,-8388608,-8388608,1161419,-8388608,-8388608,-8388608
10:54:58.219555,-8388608,-8388608,-8388608,-8388608,1171222,-8388608,-8388608,-8388608
10:54:58.219555,-8388608,-8388608,-8388608,-8388608,1246020,-8388608,-8388608,-8388608
10:54:58.237205,-8388608,-8388608,-8388608,-8388608,1287037,-8388608,-8388608,-8388608
10:54:58.237205,-8388608,-8388608,-8388608,-8388608,1232988,-8388608,-8388608,-8388608
10:54:58.237205,-8388608,-8388608,-8388608,-8388608,1163204,-8388608,-8388608,-8388608
10:54:58.237205,-8388608,-8388608,-8388608,-8388608,1171357,-8388608,-8388608,-8388608
10:54:58.252877,-8388608,-8388608,-8388608,-8388608,1236506,-8388608,-8388608,-8388608
10:54:58.253577,-8388608,-8388608,-8388608,-8388608,1279035,-8388608,-8388608,-8388608
10:54:58.253577,-8388608,-8388608,-8388608,-8388608,1239455,-8388608,-8388608,-8388608
10:54:58.253577,-8388608,-8388608,-8388608,-8388608,1162806,-8388608,-8388608,-8388608
10:54:58.268522,-8388608,-8388608,-8388608,-8388608,1161211,-8388608,-8388608,-8388608
10:54:58.270328,-8388608,-8388608,-8388608,-8388608,1229893,-8388608,-8388608,-8388608
10:54:58.270328,-8388608,-8388608,-8388608,-8388608,1283261,-8388608,-8388608,-8388608
10:54:58.270328,-8388608,-8388608,-8388608,-8388608,1234596,-8388608,-8388608,-8388608
10:54:58.285255,-8388608,-8388608,-8388608,-8388608,1155567,-8388608,-8388608,-8388608
10:54:58.289262,-8388608,-8388608,-8388608,-8388608,1162610,-8388608,-8388608,-8388608
10:54:58.292881,-8388608,-8388608,-8388608,-8388608,1238903,-8388608,-8388608,-8388608
10:54:58.292881,-8388608,-8388608,-8388608,-8388608,1279135,-8388608,-8388608,-8388608
10:54:58.297945,-8388608,-8388608,-8388608,-8388608,1233291,-8388608,-8388608,-8388608
10:54:58.302762,-8388608,-8388608,-8388608,-8388608,1156254,-8388608,-8388608,-8388608
10:54:58.302762,-8388608,-8388608,-8388608,-8388608,1167323,-8388608,-8388608,-8388608
10:54:58.302762,-8388608,-8388608,-8388608,-8388608,1238171,-8388608,-8388608,-8388608
10:54:58.302762,-8388608,-8388608,-8388608,-8388608,1288282,-8388608,-8388608,-8388608
10:54:58.319623,-8388608,-8388608,-8388608,-8388608,1240666,-8388608,-8388608,-8388608
10:54:58.319623,-8388608,-8388608,-8388608,-8388608,1158139,-8388608,-8388608,-8388608
10:54:58.319623,-8388608,-8388608,-8388608,-8388608,1167976,-8388608,-8388608,-8388608
10:54:58.319623,-8388608,-8388608,-8388608,-8388608,1238781,-8388608,-8388608,-8388608
10:54:58.336695,-8388608,-8388608,-8388608,-8388608,1287130,-8388608,-8388608,-8388608
10:54:58.336695,-8388608,-8388608,-8388608,-8388608,1231776,-8388608,-8388608,-8388608
10:54:58.336695,-8388608,-8388608,-8388608,-8388608,1157310,-8388608,-8388608,-8388608
10:54:58.336695,-8388608,-8388608,-8388608,-8388608,1164628,-8388608,-8388608,-8388608
10:54:58.351880,-8388608,-8388608,-8388608,-8388608,1232119,-8388608,-8388608,-8388608
10:54:58.353502,-8388608,-8388608,-8388608,-8388608,1284024,-8388608,-8388608,-8388608
10:54:58.353502,-8388608,-8388608,-8388608,-8388608,1242355,-8388608,-8388608,-8388608
10:54:58.353502,-8388608,-8388608,-8388608,-8388608,1158954,-8388608,-8388608,-8388608
10:54:58.368389,-8388608,-8388608,-8388608,-8388608,1166208,-8388608,-8388608,-8388608
10:54:58.373497,-8388608,-8388608,-8388608,-8388608,1237361,-8388608,-8388608,-8388608
10:54:58.376407,-8388608,-8388608,-8388608,-8388608,1286595,-8388608,-8388608,-8388608
10:54:58.376407,-8388608,-8388608,-8388608,-8388608,1240679,-8388608,-8388608,-8388608
10:54:58.376407,-8388608,-8388608,-8388608,-8388608,1148432,-8388608,-8388608,-8388608
10:54:58.389146,-8388608,-8388608,-8388608,-8388608,1138811,-8388608,-8388608,-8388608
10:54:58.393151,-8388608,-8388608,-8388608,-8388608,1193019,-8388608,-8388608,-8388608
10:54:58.397388,-8388608,-8388608,-8388608,-8388608,1234008,-8388608,-8388608,-8388608
10:54:58.401583,-8388608,-8388608,-8388608,-8388608,1188791,-8388608,-8388608,-8388608
10:54:58.402802,-8388608,-8388608,-8388608,-8388608,1111792,-8388608,-8388608,-8388608
10:54:58.402802,-8388608,-8388608,-8388608,-8388608,1142908,-8388608,-8388608,-8388608
10:54:58.402802,-8388608,-8388608,-8388608,-8388608,1226404,-8388608,-8388608,-8388608
10:54:58.402802,-8388608,-8388608,-8388608,-8388608,1280153,-8388608,-8388608,-8388608
10:54:58.419822,-8388608,-8388608,-8388608,-8388608,1232451,-8388608,-8388608,-8388608
10:54:58.419822,-8388608,-8388608,-8388608,-8388608,1154339,-8388608,-8388608,-8388608
10:54:58.419822,-8388608,-8388608,-8388608,-8388608,1163542,-8388608,-8388608,-8388608
10:54:58.419822,-8388608,-8388608,-8388608,-8388608,1229434,-8388608,-8388608,-8388608
10:54:58.436208,-8388608,-8388608,-8388608,-8388608,1276271,-8388608,-8388608,-8388608
10:54:58.436756,-8388608,-8388608,-8388608,-8388608,1233764,-8388608,-8388608,-8388608
10:54:58.436756,-8388608,-8388608,-8388608,-8388608,1154388,-8388608,-8388608,-8388608
10:54:58.436756,-8388608,-8388608,-8388608,-8388608,1167098,-8388608,-8388608,-8388608
10:54:58.453244,-8388608,-8388608,-8388608,-8388608,1230818,-8388608,-8388608,-8388608
10:54:58.455197,-8388608,-8388608,-8388608,-8388608,1277986,-8388608,-8388608,-8388608
10:54:58.455197,-8388608,-8388608,-8388608,-8388608,1234011,-8388608,-8388608,-8388608
10:54:58.455197,-8388608,-8388608,-8388608,-8388608,1153115,-8388608,-8388608,-8388608
10:54:58.468419,-8388608,-8388608,-8388608,-8388608,1163984,-8388608,-8388608,-8388608
10:54:58.470055,-8388608,-8388608,-8388608,-8388608,1229736,-8388608,-8388608,-8388608
10:54:58.470055,-8388608,-8388608,-8388608,-8388608,1279473,-8388608,-8388608,-8388608
10:54:58.470055,-8388608,-8388608,-8388608,-8388608,1231247,-8388608,-8388608,-8388608
10:54:58.470055,-8388608,-8388608,-8388608,-8388608,1149508,-8388608,-8388608,-8388608
10:54:58.486719,-8388608,-8388608,-8388608,-8388608,1156392,-8388608,-8388608,-8388608
10:54:58.486719,-8388608,-8388608,-8388608,-8388608,1226319,-8388608,-8388608,-8388608
10:54:58.486719,-8388608,-8388608,-8388608,-8388608,1275153,-8388608,-8388608,-8388608
10:54:58.497802,-8388608,-8388608,-8388608,-8388608,1230727,-8388608,-8388608,-8388608
10:54:58.504824,-8388608,-8388608,-8388608,-8388608,1152154,-8388608,-8388608,-8388608
10:54:58.508422,-8388608,-8388608,-8388608,-8388608,1157236,-8388608,-8388608,-8388608
10:54:58.508422,-8388608,-8388608,-8388608,-8388608,1225653,-8388608,-8388608,-8388608
10:54:58.508422,-8388608,-8388608,-8388608,-8388608,1276008,-8388608,-8388608,-8388608
10:54:58.519574,-8388608,-8388608,-8388608,-8388608,1235156,-8388608,-8388608,-8388608
10:54:58.519574,-8388608,-8388608,-8388608,-8388608,1152780,-8388608,-8388608,-8388608
10:54:58.519574,-8388608,-8388608,-8388608,-8388608,1156160,-8388608,-8388608,-8388608
10:54:58.519574,-8388608,-8388608,-8388608,-8388608,1229463,-8388608,-8388608,-8388608
10:54:58.536651,-8388608,-8388608,-8388608,-8388608,1276815,-8388608,-8388608,-8388608
10:54:58.536651,-8388608,-8388608,-8388608,-8388608,1231501,-8388608,-8388608,-8388608
10:54:58.536651,-8388608,-8388608,-8388608,-8388608,1144531,-8388608,-8388608,-8388608
10:54:58.536651,-8388608,-8388608,-8388608,-8388608,1154217,-8388608,-8388608,-8388608
10:54:58.552159,-8388608,-8388608,-8388608,-8388608,1220842,-8388608,-8388608,-8388608
10:54:58.553075,-8388608,-8388608,-8388608,-8388608,1270158,-8388608,-8388608,-8388608
10:54:58.553075,-8388608,-8388608,-8388608,-8388608,1222177,-8388608,-8388608,-8388608
10:54:58.553075,-8388608,-8388608,-8388608,-8388608,1142489,-8388608,-8388608,-8388608
10:54:58.568181,-8388608,-8388608,-8388608,-8388608,1154325,-8388608,-8388608,-8388608
10:54:58.569277,-8388608,-8388608,-8388608,-8388608,1220058,-8388608,-8388608,-8388608
10:54:58.569277,-8388608,-8388608,-8388608,-8388608,1269496,-8388608,-8388608,-8388608
10:54:58.569277,-8388608,-8388608,-8388608,-8388608,1224492,-8388608,-8388608,-8388608
10:54:58.569277,-8388608,-8388608,-8388608,-8388608,1151172,-8388608,-8388608,-8388608
10:54:58.589206,-8388608,-8388608,-8388608,-8388608,1158076,-8388608,-8388608,-8388608
10:54:58.591427,-8388608,-8388608,-8388608,-8388608,1213769,-8388608,-8388608,-8388608
10:54:58.591427,-8388608,-8388608,-8388608,-8388608,1261804,-8388608,-8388608,-8388608
10:54:58.597935,-8388608,-8388608,-8388608,-8388608,1222086,-8388608,-8388608,-8388608
10:54:58.604390,-8388608,-8388608,-8388608,-8388608,1139754,-8388608,-8388608,-8388608
10:54:58.608389,-8388608,-8388608,-8388608,-8388608,1147274,-8388608,-8388608,-8388608
10:54:58.612591,-8388608,-8388608,-8388608,-8388608,1214205,-8388608,-8388608,-8388608
10:54:58.618397,-8388608,-8388608,-8388608,-8388608,1262139,-8388608,-8388608,-8388608
10:54:58.619254,-8388608,-8388608,-8388608,-8388608,1217399,-8388608,-8388608,-8388608
10:54:58.619254,-8388608,-8388608,-8388608,-8388608,1139531,-8388608,-8388608,-8388608
10:54:58.619254,-8388608,-8388608,-8388608,-8388608,1143720,-8388608,-8388608,-8388608
10:54:58.619254,-8388608,-8388608,-8388608,-8388608,1213487,-8388608,-8388608,-8388608
10:54:58.636043,-8388608,-8388608,-8388608,-8388608,1264518,-8388608,-8388608,-8388608
10:54:58.636043,-8388608,-8388608,-8388608,-8388608,1221223,-8388608,-8388608,-8388608
10:54:58.636043,-8388608,-8388608,-8388608,-8388608,1144599,-8388608,-8388608,-8388608
10:54:58.636043,-8388608,-8388608,-8388608,-8388608,1144626,-8388608,-8388608,-8388608
10:54:58.636043,-8388608,-8388608,-8388608,-8388608,1213223,-8388608,-8388608,-8388608
10:54:58.653105,-8388608,-8388608,-8388608,-8388608,1265614,-8388608,-8388608,-8388608
10:54:58.653105,-8388608,-8388608,-8388608,-8388608,1223362,-8388608,-8388608,-8388608
10:54:58.653105,-8388608,-8388608,-8388608,-8388608,1143323,-8388608,-8388608,-8388608
10:54:58.668132,-8388608,-8388608,-8388608,-8388608,1146409,-8388608,-8388608,-8388608
10:54:58.669559,-8388608,-8388608,-8388608,-8388608,1217153,-8388608,-8388608,-8388608
10:54:58.669559,-8388608,-8388608,-8388608,-8388608,1274963,-8388608,-8388608,-8388608
10:54:58.669559,-8388608,-8388608,-8388608,-8388608,1232168,-8388608,-8388608,-8388608
10:54:58.669559,-8388608,-8388608,-8388608,-8388608,1148513,-8388608,-8388608,-8388608
10:54:58.686054,-8388608,-8388608,-8388608,-8388608,1147358,-8388608,-8388608,-8388608
10:54:58.686054,-8388608,-8388608,-8388608,-8388608,1214516,-8388608,-8388608,-8388608
10:54:58.686054,-8388608,-8388608,-8388608,-8388608,1268272,-8388608,-8388608,-8388608
10:54:58.701658,-8388608,-8388608,-8388608,-8388608,1228531,-8388608,-8388608,-8388608
10:54:58.705164,-8388608,-8388608,-8388608,-8388608,1152006,-8388608,-8388608,-8388608
10:54:58.707083,-8388608,-8388608,-8388608,-8388608,1150824,-8388608,-8388608,-8388608
10:54:58.711200,-8388608,-8388608,-8388608,-8388608,1213802,-8388608,-8388608,-8388608
10:54:58.711200,-8388608,-8388608,-8388608,-8388608,1267703,-8388608,-8388608,-8388608
10:54:58.719516,-8388608,-8388608,-8388608,-8388608,1231338,-8388608,-8388608,-8388608
10:54:58.719516,-8388608,-8388608,-8388608,-8388608,1150619,-8388608,-8388608,-8388608
10:54:58.719516,-8388608,-8388608,-8388608,-8388608,1147229,-8388608,-8388608,-8388608
10:54:58.719516,-8388608,-8388608,-8388608,-8388608,1217354,-8388608,-8388608,-8388608
10:54:58.734727,-8388608,-8388608,-8388608,-8388608,1271559,-8388608,-8388608,-8388608
10:54:58.735870,-8388608,-8388608,-8388608,-8388608,1228883,-8388608,-8388608,-8388608
10:54:58.735870,-8388608,-8388608,-8388608,-8388608,1148194,-8388608,-8388608,-8388608
10:54:58.735870,-8388608,-8388608,-8388608,-8388608,1149581,-8388608,-8388608,-8388608
10:54:58.752487,-8388608,-8388608,-8388608,-8388608,1219221,-8388608,-8388608,-8388608
10:54:58.752906,-8388608,-8388608,-8388608,-8388608,1271455,-8388608,-8388608,-8388608
10:54:58.752906,-8388608,-8388608,-8388608,-8388608,1231025,-8388608,-8388608,-8388608
10:54:58.752906,-8388608,-8388608,-8388608,-8388608,1149174,-8388608,-8388608,-8388608
10:54:58.769261,-8388608,-8388608,-8388608,-8388608,1152498,-8388608,-8388608,-8388608
10:54:58.769745,-8388608,-8388608,-8388608,-8388608,1216746,-8388608,-8388608,-8388608
10:54:58.769745,-8388608,-8388608,-8388608,-8388608,1273229,-8388608,-8388608,-8388608
10:54:58.769745,-8388608,-8388608,-8388608,-8388608,1226834,-8388608,-8388608,-8388608
10:54:58.769745,-8388608,-8388608,-8388608,-8388608,1140931,-8388608,-8388608,-8388608
10:54:58.786375,-8388608,-8388608,-8388608,-8388608,1144811,-8388608,-8388608,-8388608
10:54:58.790740,-8388608,-8388608,-8388608,-8388608,1212946,-8388608,-8388608,-8388608
10:54:58.792951,-8388608,-8388608,-8388608,-8388608,1266978,-8388608,-8388608,-8388608
10:54:58.797973,-8388608,-8388608,-8388608,-8388608,1227964,-8388608,-8388608,-8388608
10:54:58.804388,-8388608,-8388608,-8388608,-8388608,1151523,-8388608,-8388608,-8388608
10:54:58.808561,-8388608,-8388608,-8388608,-8388608,1148351,-8388608,-8388608,-8388608
10:54:58.812168,-8388608,-8388608,-8388608,-8388608,1217301,-8388608,-8388608,-8388608
10:54:58.816186,-8388608,-8388608,-8388608,-8388608,1268008,-8388608,-8388608,-8388608
10:54:58.819089,-8388608,-8388608,-8388608,-8388608,1225331,-8388608,-8388608,-8388608
10:54:58.819089,-8388608,-8388608,-8388608,-8388608,1146600,-8388608,-8388608,-8388608
10:54:58.819089,-8388608,-8388608,-8388608,-8388608,1148392,-8388608,-8388608,-8388608
10:54:58.819089,-8388608,-8388608,-8388608,-8388608,1214456,-8388608,-8388608,-8388608
10:54:58.836189,-8388608,-8388608,-8388608,-8388608,1270444,-8388608,-8388608,-8388608
10:54:58.836189,-8388608,-8388608,-8388608,-8388608,1227212,-8388608,-8388608,-8388608
10:54:58.836189,-8388608,-8388608,-8388608,-8388608,1150045,-8388608,-8388608,-8388608
10:54:58.836189,-8388608,-8388608,-8388608,-8388608,1144571,-8388608,-8388608,-8388608
10:54:58.851325,-8388608,-8388608,-8388608,-8388608,1206448,-8388608,-8388608,-8388608
10:54:58.853223,-8388608,-8388608,-8388608,-8388608,1262854,-8388608,-8388608,-8388608
10:54:58.853223,-8388608,-8388608,-8388608,-8388608,1227934,-8388608,-8388608,-8388608
10:54:58.853223,-8388608,-8388608,-8388608,-8388608,1150483,-8388608,-8388608,-8388608
10:54:58.853223,-8388608,-8388608,-8388608,-8388608,1146368,-8388608,-8388608,-8388608
10:54:58.869707,-8388608,-8388608,-8388608,-8388608,1211854,-8388608,-8388608,-8388608
10:54:58.869707,-8388608,-8388608,-8388608,-8388608,1262255,-8388608,-8388608,-8388608
10:54:58.869707,-8388608,-8388608,-8388608,-8388608,1224701,-8388608,-8388608,-8388608
10:54:58.869707,-8388608,-8388608,-8388608,-8388608,1149228,-8388608,-8388608,-8388608
10:54:58.886172,-8388608,-8388608,-8388608,-8388608,1145129,-8388608,-8388608,-8388608
10:54:58.886172,-8388608,-8388608,-8388608,-8388608,1211250,-8388608,-8388608,-8388608
10:54:58.886172,-8388608,-8388608,-8388608,-8388608,1268060,-8388608,-8388608,-8388608
10:54:58.898261,-8388608,-8388608,-8388608,-8388608,1230410,-8388608,-8388608,-8388608
10:54:58.902830,-8388608,-8388608,-8388608,-8388608,1153109,-8388608,-8388608,-8388608
10:54:58.902830,-8388608,-8388608,-8388608,-8388608,1146052,-8388608,-8388608,-8388608
10:54:58.902830,-8388608,-8388608,-8388608,-8388608,1212234,-8388608,-8388608,-8388608
10:54:58.902830,-8388608,-8388608,-8388608,-8388608,1266119,-8388608,-8388608,-8388608
10:54:58.919130,-8388608,-8388608,-8388608,-8388608,1224831,-8388608,-8388608,-8388608
10:54:58.923167,-8388608,-8388608,-8388608,-8388608,1153279,-8388608,-8388608,-8388608
10:54:58.926220,-8388608,-8388608,-8388608,-8388608,1148268,-8388608,-8388608,-8388608
10:54:58.926220,-8388608,-8388608,-8388608,-8388608,1209119,-8388608,-8388608,-8388608
10:54:58.935621,-8388608,-8388608,-8388608,-8388608,1265369,-8388608,-8388608,-8388608
10:54:58.936498,-8388608,-8388608,-8388608,-8388608,1228143,-8388608,-8388608,-8388608
10:54:58.936498,-8388608,-8388608,-8388608,-8388608,1147521,-8388608,-8388608,-8388608
10:54:58.936498,-8388608,-8388608,-8388608,-8388608,1143141,-8388608,-8388608,-8388608
10:54:58.951277,-8388608,-8388608,-8388608,-8388608,1205550,-8388608,-8388608,-8388608
10:54:58.952899,-8388608,-8388608,-8388608,-8388608,1263197,-8388608,-8388608,-8388608
10:54:58.952899,-8388608,-8388608,-8388608,-8388608,1226893,-8388608,-8388608,-8388608
10:54:58.952899,-8388608,-8388608,-8388608,-8388608,1139106,-8388608,-8388608,-8388608
10:54:58.952899,-8388608,-8388608,-8388608,-8388608,1138086,-8388608,-8388608,-8388608
10:54:58.969841,-8388608,-8388608,-8388608,-8388608,1205479,-8388608,-8388608,-8388608
10:54:58.969841,-8388608,-8388608,-8388608,-8388608,1264896,-8388608,-8388608,-8388608
10:54:58.969841,-8388608,-8388608,-8388608,-8388608,1229543,-8388608,-8388608,-8388608
10:54:58.969841,-8388608,-8388608,-8388608,-8388608,1151981,-8388608,-8388608,-8388608
10:54:58.986044,-8388608,-8388608,-8388608,-8388608,1146244,-8388608,-8388608,-8388608
10:54:58.991722,-8388608,-8388608,-8388608,-8388608,1209041,-8388608,-8388608,-8388608
10:54:58.993484,-8388608,-8388608,-8388608,-8388608,1267945,-8388608,-8388608,-8388608
10:54:58.998595,-8388608,-8388608,-8388608,-8388608,1228929,-8388608,-8388608,-8388608
10:54:59.002333,-8388608,-8388608,-8388608,-8388608,1151734,-8388608,-8388608,-8388608
10:54:59.008361,-8388608,-8388608,-8388608,-8388608,1144664,-8388608,-8388608,-8388608
10:54:59.013069,-8388608,-8388608,-8388608,-8388608,1208654,-8388608,-8388608,-8388608
10:54:59.016066,-8388608,-8388608,-8388608,-8388608,1265990,-8388608,-8388608,-8388608
10:54:59.021411,-8388608,-8388608,-8388608,-8388608,1230243,-8388608,-8388608,-8388608
10:54:59.022328,-8388608,-8388608,-8388608,-8388608,1147320,-8388608,-8388608,-8388608
10:54:59.022328,-8388608,-8388608,-8388608,-8388608,1145193,-8388608,-8388608,-8388608
10:54:59.022328,-8388608,-8388608,-8388608,-8388608,1212250,-8388608,-8388608,-8388608
10:54:59.035872,-8388608,-8388608,-8388608,-8388608,1265165,-8388608,-8388608,-8388608
10:54:59.035872,-8388608,-8388608,-8388608,-8388608,1227266,-8388608,-8388608,-8388608
10:54:59.035872,-8388608,-8388608,-8388608,-8388608,1155279,-8388608,-8388608,-8388608
10:54:59.035872,-8388608,-8388608,-8388608,-8388608,1156764,-8388608,-8388608,-8388608
10:54:59.051335,-8388608,-8388608,-8388608,-8388608,1215448,-8388608,-8388608,-8388608
10:54:59.052798,-8388608,-8388608,-8388608,-8388608,1271210,-8388608,-8388608,-8388608
10:54:59.052798,-8388608,-8388608,-8388608,-8388608,1227557,-8388608,-8388608,-8388608
10:54:59.052798,-8388608,-8388608,-8388608,-8388608,1140714,-8388608,-8388608,-8388608
10:54:59.067922,-8388608,-8388608,-8388608,-8388608,1118823,-8388608,-8388608,-8388608
10:54:59.069495,-8388608,-8388608,-8388608,-8388608,1165680,-8388608,-8388608,-8388608
10:54:59.069495,-8388608,-8388608,-8388608,-8388608,1211191,-8388608,-8388608,-8388608
10:54:59.069495,-8388608,-8388608,-8388608,-8388608,1162398,-8388608,-8388608,-8388608
10:54:59.069495,-8388608,-8388608,-8388608,-8388608,1097840,-8388608,-8388608,-8388608
10:54:59.085790,-8388608,-8388608,-8388608,-8388608,1114000,-8388608,-8388608,-8388608
10:54:59.085790,-8388608,-8388608,-8388608,-8388608,1198334,-8388608,-8388608,-8388608
10:54:59.085790,-8388608,-8388608,-8388608,-8388608,1256579,-8388608,-8388608,-8388608
10:54:59.098906,-8388608,-8388608,-8388608,-8388608,1224588,-8388608,-8388608,-8388608
10:54:59.102817,-8388608,-8388608,-8388608,-8388608,1150093,-8388608,-8388608,-8388608
10:54:59.102817,-8388608,-8388608,-8388608,-8388608,1142466,-8388608,-8388608,-8388608
10:54:59.102817,-8388608,-8388608,-8388608,-8388608,1208546,-8388608,-8388608,-8388608
10:54:59.102817,-8388608,-8388608,-8388608,-8388608,1267991,-8388608,-8388608,-8388608
10:54:59.118791,-8388608,-8388608,-8388608,-8388608,1235854,-8388608,-8388608,-8388608
10:54:59.119445,-8388608,-8388608,-8388608,-8388608,1152440,-8388608,-8388608,-8388608
10:54:59.119445,-8388608,-8388608,-8388608,-8388608,1142156,-8388608,-8388608,-8388608
